0.000000e+000
0.000000e+000
0.000000e+000
0.000000e+000
0.000000e+000
0.000000e+000
0.000000e+000
0.000000e+000
0.000000e+000
0.000000e+000
0.000000e+000
0.000000e+000
0.000000e+000
0.000000e+000
0.000000e+000
0.000000e+000
0.000000e+000
0.000000e+000
0.000000e+000
0.000000e+000
0.000000e+000
0.000000e+000
0.000000e+000
0.000000e+000
0.000000e+000
0.000000e+000
0.000000e+000
0.000000e+000
0.000000e+000
0.000000e+000
0.000000e+000
0.000000e+000
0.000000e+000
0.000000e+000
0.000000e+000
0.000000e+000
0.000000e+000
0.000000e+000
0.000000e+000
0.000000e+000
0.000000e+000
0.000000e+000
0.000000e+000
0.000000e+000
0.000000e+000
0.000000e+000
0.000000e+000
0.000000e+000
0.000000e+000
0.000000e+000
0.000000e+000
0.000000e+000
0.000000e+000
0.000000e+000
0.000000e+000
0.000000e+000
0.000000e+000
0.000000e+000
0.000000e+000
0.000000e+000
0.000000e+000
0.000000e+000
0.000000e+000
0.000000e+000
0.000000e+000
0.000000e+000
0.000000e+000
0.000000e+000
0.000000e+000
0.000000e+000
0.000000e+000
0.000000e+000
0.000000e+000
0.000000e+000
0.000000e+000
0.000000e+000
0.000000e+000
0.000000e+000
0.000000e+000
0.000000e+000
0.000000e+000
0.000000e+000
0.000000e+000
0.000000e+000
0.000000e+000
0.000000e+000
0.000000e+000
0.000000e+000
0.000000e+000
0.000000e+000
0.000000e+000
0.000000e+000
0.000000e+000
0.000000e+000
0.000000e+000
0.000000e+000
0.000000e+000
0.000000e+000
0.000000e+000
0.000000e+000
0.000000e+000
0.000000e+000
0.000000e+000
0.000000e+000
6.608256e-012
5.829042e-011
2.597622e-010
7.994676e-010
1.949418e-009
4.062481e-009
7.565995e-009
1.294565e-008
2.072573e-008
3.145649e-008
4.570932e-008
6.407054e-008
8.712964e-008
1.154694e-007
1.496648e-007
1.902879e-007
2.379110e-007
2.931069e-007
3.564430e-007
4.284684e-007
5.096958e-007
6.005882e-007
7.015542e-007
8.129470e-007
9.350618e-007
1.068136e-006
1.212352e-006
1.367827e-006
1.534615e-006
1.712709e-006
1.902057e-006
2.102560e-006
2.314082e-006
2.536449e-006
2.769458e-006
3.012867e-006
3.266393e-006
3.529708e-006
3.802447e-006
4.084208e-006
4.374557e-006
4.673033e-006
4.979142e-006
5.292368e-006
5.612170e-006
5.938005e-006
6.269324e-006
6.605583e-006
6.946231e-006
7.290707e-006
7.638432e-006
7.988799e-006
8.341180e-006
8.694929e-006
9.049395e-006
9.403930e-006
9.757906e-006
1.011072e-005
1.046182e-005
1.081067e-005
1.115674e-005
1.149957e-005
1.183868e-005
1.217364e-005
1.250405e-005
1.282954e-005
1.314974e-005
1.346431e-005
1.377288e-005
1.407508e-005
1.437055e-005
1.465893e-005
1.493992e-005
1.521323e-005
1.547858e-005
1.573572e-005
1.598440e-005
1.622445e-005
1.645570e-005
1.667801e-005
1.689123e-005
1.709526e-005
1.728997e-005
1.747528e-005
1.765111e-005
1.781741e-005
1.797417e-005
1.812139e-005
1.825913e-005
1.838745e-005
1.850644e-005
1.861620e-005
1.871686e-005
1.880852e-005
1.889132e-005
1.896539e-005
1.903084e-005
1.908780e-005
1.913640e-005
1.917684e-005
1.920930e-005
1.923400e-005
1.925120e-005
1.926116e-005
1.926415e-005
1.926045e-005
1.925035e-005
1.923413e-005
1.921205e-005
1.918438e-005
1.915137e-005
1.911326e-005
1.907030e-005
1.902275e-005
1.897086e-005
1.891485e-005
1.885499e-005
1.879154e-005
1.872478e-005
1.865501e-005
1.858249e-005
1.850751e-005
1.843030e-005
1.835105e-005
1.826998e-005
1.818728e-005
1.810316e-005
1.801787e-005
1.793165e-005
1.784474e-005
1.775741e-005
1.766993e-005
1.758258e-005
1.749561e-005
1.740931e-005
1.732393e-005
1.723974e-005
1.715699e-005
1.707593e-005
1.699680e-005
1.691986e-005
1.684535e-005
1.677354e-005
1.670467e-005
1.663894e-005
1.657657e-005
1.651770e-005
1.646248e-005
1.641104e-005
1.636349e-005
1.631994e-005
1.628050e-005
1.624524e-005
1.621421e-005
1.618746e-005
1.616499e-005
1.614683e-005
1.613298e-005
1.612346e-005
1.611827e-005
1.611737e-005
1.612073e-005
1.612830e-005
1.613999e-005
1.615571e-005
1.617533e-005
1.619872e-005
1.622573e-005
1.625618e-005
1.628992e-005
1.632679e-005
1.636663e-005
1.640929e-005
1.645460e-005
1.650236e-005
1.655238e-005
1.660447e-005
1.665843e-005
1.671406e-005
1.677118e-005
1.682960e-005
1.688918e-005
1.694976e-005
1.701123e-005
1.707347e-005
1.713635e-005
1.719972e-005
1.726344e-005
1.732730e-005
1.739114e-005
1.745474e-005
1.751791e-005
1.758042e-005
1.764204e-005
1.770255e-005
1.776170e-005
1.781927e-005
1.787501e-005
1.792869e-005
1.798008e-005
1.802896e-005
1.807516e-005
1.811854e-005
1.815898e-005
1.819638e-005
1.823063e-005
1.826164e-005
1.828929e-005
1.831345e-005
1.833401e-005
1.835082e-005
1.836378e-005
1.837277e-005
1.837771e-005
1.837855e-005
1.837528e-005
1.836794e-005
1.835659e-005
1.834137e-005
1.832245e-005
1.830003e-005
1.827432e-005
1.824559e-005
1.821408e-005
1.818006e-005
1.814379e-005
1.810554e-005
1.806555e-005
1.802409e-005
1.798141e-005
1.793775e-005
1.789337e-005
1.784851e-005
1.780342e-005
1.775834e-005
1.771352e-005
1.766918e-005
1.762556e-005
1.758286e-005
1.754128e-005
1.750102e-005
1.746223e-005
1.742510e-005
1.738974e-005
1.735628e-005
1.732478e-005
1.729531e-005
1.726790e-005
1.724257e-005
1.721933e-005
1.719815e-005
1.717900e-005
1.716181e-005
1.714652e-005
1.713303e-005
1.712126e-005
1.711111e-005
1.710247e-005
1.709520e-005
1.708918e-005
1.708427e-005
1.708034e-005
1.707729e-005
1.707500e-005
1.707340e-005
1.707239e-005
1.707191e-005
1.707184e-005
1.707208e-005
1.707256e-005
1.707321e-005
1.707400e-005
1.707494e-005
1.707604e-005
1.707733e-005
1.707887e-005
1.708072e-005
1.708299e-005
1.708578e-005
1.708923e-005
1.709348e-005
1.709863e-005
1.710476e-005
1.711191e-005
1.712011e-005
1.712933e-005
1.713950e-005
1.715051e-005
1.716218e-005
1.717434e-005
1.718682e-005
1.719946e-005
1.721213e-005
1.722475e-005
1.723725e-005
1.724959e-005
1.726173e-005
1.727361e-005
1.728518e-005
1.729643e-005
1.730734e-005
1.731791e-005
1.732813e-005
1.733799e-005
1.734740e-005
1.735630e-005
1.736462e-005
1.737231e-005
1.737932e-005
1.738561e-005
1.739115e-005
1.739592e-005
1.739990e-005
1.740309e-005
1.740549e-005
1.740708e-005
1.740779e-005
1.740757e-005
1.740633e-005
1.740401e-005
1.740053e-005
1.739585e-005
1.738991e-005
1.738268e-005
1.737410e-005
1.736416e-005
1.735283e-005
1.734008e-005
1.732594e-005
1.731041e-005
1.729358e-005
1.727552e-005
1.725635e-005
1.723620e-005
1.721518e-005
1.719339e-005
1.717092e-005
1.714786e-005
1.712428e-005
1.710029e-005
1.707602e-005
1.705160e-005
1.702717e-005
1.700288e-005
1.697884e-005
1.695517e-005
1.693198e-005
1.690941e-005
1.688756e-005
1.686660e-005
1.684667e-005
1.682792e-005
1.681052e-005
1.679459e-005
1.678025e-005
1.676760e-005
1.675669e-005
1.674759e-005
1.674032e-005
1.673489e-005
1.673128e-005
1.672944e-005
1.672930e-005
1.673078e-005
1.673378e-005
1.673825e-005
1.674412e-005
1.675134e-005
1.675984e-005
1.676956e-005
1.678039e-005
1.679224e-005
1.680501e-005
1.681858e-005
1.683283e-005
1.684763e-005
1.686284e-005
1.687832e-005
1.689390e-005
1.690942e-005
1.692470e-005
1.693956e-005
1.695382e-005
1.696732e-005
1.697989e-005
1.699139e-005
1.700171e-005
1.701071e-005
1.701827e-005
1.702428e-005
1.702862e-005
1.703116e-005
1.703183e-005
1.703052e-005
1.702716e-005
1.702170e-005
1.701411e-005
1.700441e-005
1.699265e-005
1.697894e-005
1.696342e-005
1.694625e-005
1.692761e-005
1.690767e-005
1.688658e-005
1.686449e-005
1.684158e-005
1.681801e-005
1.679394e-005
1.676957e-005
1.674513e-005
1.672084e-005
1.669694e-005
1.667364e-005
1.665115e-005
1.662965e-005
1.660932e-005
1.659032e-005
1.657278e-005
1.655682e-005
1.654253e-005
1.653002e-005
1.651939e-005
1.651075e-005
1.650420e-005
1.649981e-005
1.649762e-005
1.649763e-005
1.649985e-005
1.650427e-005
1.651086e-005
1.651963e-005
1.653059e-005
1.654374e-005
1.655910e-005
1.657665e-005
1.659639e-005
1.661827e-005
1.664227e-005
1.666831e-005
1.669633e-005
1.672621e-005
1.675785e-005
1.679106e-005
1.682566e-005
1.686143e-005
1.689815e-005
1.693559e-005
1.697352e-005
1.701176e-005
1.705012e-005
1.708844e-005
1.712657e-005
1.716435e-005
1.720163e-005
1.723828e-005
1.727416e-005
1.730916e-005
1.734317e-005
1.737605e-005
1.740769e-005
1.743796e-005
1.746672e-005
1.749387e-005
1.751932e-005
1.754297e-005
1.756472e-005
1.758445e-005
1.760204e-005
1.761737e-005
1.763031e-005
1.764077e-005
1.764871e-005
1.765413e-005
1.765706e-005
1.765758e-005
1.765582e-005
1.765194e-005
1.764613e-005
1.763862e-005
1.762964e-005
1.761944e-005
1.760824e-005
1.759627e-005
1.758373e-005
1.757081e-005
1.755768e-005
1.754447e-005
1.753134e-005
1.751840e-005
1.750577e-005
1.749357e-005
1.748189e-005
1.747087e-005
1.746061e-005
1.745121e-005
1.744274e-005
1.743527e-005
1.742885e-005
1.742355e-005
1.741945e-005
1.741663e-005
1.741521e-005
1.741530e-005
1.741697e-005
1.742030e-005
1.742530e-005
1.743196e-005
1.744025e-005
1.745015e-005
1.746164e-005
1.747467e-005
1.748919e-005
1.750512e-005
1.752237e-005
1.754085e-005
1.756044e-005
1.758104e-005
1.760251e-005
1.762475e-005
1.764766e-005
1.767115e-005
1.769519e-005
1.771973e-005
1.774474e-005
1.777018e-005
1.779601e-005
1.782217e-005
1.784859e-005
1.787518e-005
1.790185e-005
1.792848e-005
1.795495e-005
1.798112e-005
1.800689e-005
1.803214e-005
1.805677e-005
1.808066e-005
1.810369e-005
1.812571e-005
1.814658e-005
1.816615e-005
1.818426e-005
1.820078e-005
1.821556e-005
1.822850e-005
1.823952e-005
1.824855e-005
1.825554e-005
1.826045e-005
1.826324e-005
1.826385e-005
1.826221e-005
1.825829e-005
1.825205e-005
1.824352e-005
1.823276e-005
1.821984e-005
1.820486e-005
1.818792e-005
1.816913e-005
1.814862e-005
1.812653e-005
1.810296e-005
1.807804e-005
1.805189e-005
1.802462e-005
1.799633e-005
1.796709e-005
1.793699e-005
1.790608e-005
1.787445e-005
1.784219e-005
1.780940e-005
1.777617e-005
1.774259e-005
1.770875e-005
1.767473e-005
1.764062e-005
1.760651e-005
1.757247e-005
1.753862e-005
1.750502e-005
1.747176e-005
1.743892e-005
1.740656e-005
1.737475e-005
1.734356e-005
1.731304e-005
1.728322e-005
1.725412e-005
1.722574e-005
1.719807e-005
1.717110e-005
1.714481e-005
1.711919e-005
1.709425e-005
1.707001e-005
1.704654e-005
1.702390e-005
1.700216e-005
1.698141e-005
1.696173e-005
1.694319e-005
1.692587e-005
1.690984e-005
1.689516e-005
1.688189e-005
1.687010e-005
1.685983e-005
1.685116e-005
1.684414e-005
1.683881e-005
1.683519e-005
1.683330e-005
1.683315e-005
1.683476e-005
1.683813e-005
1.684324e-005
1.685009e-005
1.685862e-005
1.686879e-005
1.688050e-005
1.689367e-005
1.690821e-005
1.692401e-005
1.694097e-005
1.695897e-005
1.697790e-005
1.699764e-005
1.701809e-005
1.703915e-005
1.706073e-005
1.708274e-005
1.710506e-005
1.712757e-005
1.715019e-005
1.717280e-005
1.719535e-005
1.721776e-005
1.723998e-005
1.726195e-005
1.728359e-005
1.730490e-005
1.732583e-005
1.734642e-005
1.736665e-005
1.738657e-005
1.740618e-005
1.742554e-005
1.744468e-005
1.746366e-005
1.748254e-005
1.750136e-005
1.752018e-005
1.753902e-005
1.755791e-005
1.757682e-005
1.759572e-005
1.761457e-005
1.763333e-005
1.765196e-005
1.767042e-005
1.768867e-005
1.770669e-005
1.772443e-005
1.774184e-005
1.775888e-005
1.777546e-005
1.779151e-005
1.780697e-005
1.782175e-005
1.783579e-005
1.784902e-005
1.786140e-005
1.787289e-005
1.788343e-005
1.789300e-005
1.790153e-005
1.790899e-005
1.791531e-005
1.792043e-005
1.792431e-005
1.792688e-005
1.792813e-005
1.792803e-005
1.792659e-005
1.792383e-005
1.791978e-005
1.791447e-005
1.790791e-005
1.790009e-005
1.789104e-005
1.788075e-005
1.786925e-005
1.785659e-005
1.784285e-005
1.782809e-005
1.781238e-005
1.779580e-005
1.777840e-005
1.776024e-005
1.774136e-005
1.772178e-005
1.770150e-005
1.768051e-005
1.765880e-005
1.763638e-005
1.761327e-005
1.758948e-005
1.756506e-005
1.754006e-005
1.751449e-005
1.748840e-005
1.746178e-005
1.743462e-005
1.740693e-005
1.737870e-005
1.734997e-005
1.732079e-005
1.729121e-005
1.726129e-005
1.723110e-005
1.720070e-005
1.717015e-005
1.713951e-005
1.710882e-005
1.707813e-005
1.704745e-005
1.701682e-005
1.698626e-005
1.695580e-005
1.692549e-005
1.689540e-005
1.686558e-005
1.683611e-005
1.680708e-005
1.677858e-005
1.675067e-005
1.672345e-005
1.669696e-005
1.667123e-005
1.664626e-005
1.662205e-005
1.659855e-005
1.657574e-005
1.655358e-005
1.653204e-005
1.651108e-005
1.649072e-005
1.647096e-005
1.645182e-005
1.643332e-005
1.641548e-005
1.639832e-005
1.638187e-005
1.636617e-005
1.635130e-005
1.633734e-005
1.632436e-005
1.631246e-005
1.630175e-005
1.629231e-005
1.628425e-005
1.627766e-005
1.627262e-005
1.626918e-005
1.626739e-005
1.626731e-005
1.626896e-005
1.627236e-005
1.627750e-005
1.628433e-005
1.629279e-005
1.630280e-005
1.631429e-005
1.632715e-005
1.634129e-005
1.635662e-005
1.637304e-005
1.639045e-005
1.640875e-005
1.642786e-005
1.644767e-005
1.646812e-005
1.648914e-005
1.651065e-005
1.653259e-005
1.655492e-005
1.657761e-005
1.660063e-005
1.662397e-005
1.664757e-005
1.667142e-005
1.669548e-005
1.671970e-005
1.674403e-005
1.676841e-005
1.679279e-005
1.681715e-005
1.684146e-005
1.686570e-005
1.688987e-005
1.691395e-005
1.693794e-005
1.696184e-005
1.698566e-005
1.700939e-005
1.703300e-005
1.705644e-005
1.707966e-005
1.710256e-005
1.712505e-005
1.714706e-005
1.716848e-005
1.718926e-005
1.720933e-005
1.722859e-005
1.724698e-005
1.726440e-005
1.728078e-005
1.729605e-005
1.731018e-005
1.732315e-005
1.733496e-005
1.734561e-005
1.735512e-005
1.736351e-005
1.737081e-005
1.737704e-005
1.738222e-005
1.738637e-005
1.738949e-005
1.739161e-005
1.739274e-005
1.739288e-005
1.739203e-005
1.739019e-005
1.738736e-005
1.738356e-005
1.737883e-005
1.737321e-005
1.736674e-005
1.735947e-005
1.735141e-005
1.734260e-005
1.733306e-005
1.732282e-005
1.731189e-005
1.730032e-005
1.728817e-005
1.727551e-005
1.726244e-005
1.724907e-005
1.723551e-005
1.722189e-005
1.720832e-005
1.719494e-005
1.718187e-005
1.716925e-005
1.715721e-005
1.714589e-005
1.713543e-005
1.712595e-005
1.711756e-005
1.711037e-005
1.710444e-005
1.709987e-005
1.709675e-005
1.709516e-005
1.709517e-005
1.709683e-005
1.710016e-005
1.710517e-005
1.711186e-005
1.712020e-005
1.713015e-005
1.714164e-005
1.715457e-005
1.716883e-005
1.718428e-005
1.720075e-005
1.721807e-005
1.723606e-005
1.725454e-005
1.727334e-005
1.729230e-005
1.731123e-005
1.732998e-005
1.734839e-005
1.736634e-005
1.738371e-005
1.740042e-005
1.741639e-005
1.743160e-005
1.744603e-005
1.745970e-005
1.747268e-005
1.748505e-005
1.749693e-005
1.750843e-005
1.751968e-005
1.753078e-005
1.754184e-005
1.755296e-005
1.756421e-005
1.757569e-005
1.758747e-005
1.759964e-005
1.761224e-005
1.762532e-005
1.763886e-005
1.765285e-005
1.766723e-005
1.768194e-005
1.769687e-005
1.771192e-005
1.772695e-005
1.774187e-005
1.775656e-005
1.777094e-005
1.778494e-005
1.779851e-005
1.781160e-005
1.782414e-005
1.783611e-005
1.784745e-005
1.785811e-005
1.786800e-005
1.787703e-005
1.788512e-005
1.789215e-005
1.789802e-005
1.790263e-005
1.790592e-005
1.790783e-005
1.790832e-005
1.790740e-005
1.790509e-005
1.790143e-005
1.789648e-005
1.789031e-005
1.788301e-005
1.787468e-005
1.786538e-005
1.785519e-005
1.784417e-005
1.783235e-005
1.781976e-005
1.780643e-005
1.779234e-005
1.777750e-005
1.776188e-005
1.774544e-005
1.772814e-005
1.770991e-005
1.769073e-005
1.767057e-005
1.764945e-005
1.762740e-005
1.760448e-005
1.758074e-005
1.755620e-005
1.753093e-005
1.750494e-005
1.747828e-005
1.745099e-005
1.742311e-005
1.739472e-005
1.736591e-005
1.733681e-005
1.730755e-005
1.727828e-005
1.724915e-005
1.722026e-005
1.719173e-005
1.716369e-005
1.713627e-005
1.710958e-005
1.708374e-005
1.705888e-005
1.703513e-005
1.701265e-005
1.699161e-005
1.697221e-005
1.695465e-005
1.693913e-005
1.692585e-005
1.691499e-005
1.690672e-005
1.690116e-005
1.689840e-005
1.689847e-005
1.690135e-005
1.690700e-005
1.691534e-005
1.692629e-005
1.693971e-005
1.695547e-005
1.697338e-005
1.699324e-005
1.701485e-005
1.703801e-005
1.706252e-005
1.708819e-005
1.711484e-005
1.714226e-005
1.717025e-005
1.719859e-005
1.722707e-005
1.725548e-005
1.728361e-005
1.731127e-005
1.733828e-005
1.736449e-005
1.738982e-005
1.741418e-005
1.743751e-005
1.745977e-005
1.748090e-005
1.750085e-005
1.751963e-005
1.753726e-005
1.755382e-005
1.756945e-005
1.758426e-005
1.759839e-005
1.761197e-005
1.762511e-005
1.763790e-005
1.765044e-005
1.766277e-005
1.767490e-005
1.768685e-005
1.769859e-005
1.771011e-005
1.772134e-005
1.773225e-005
1.774277e-005
1.775284e-005
1.776240e-005
1.777138e-005
1.777972e-005
1.778735e-005
1.779421e-005
1.780029e-005
1.780554e-005
1.780997e-005
1.781355e-005
1.781624e-005
1.781803e-005
1.781889e-005
1.781881e-005
1.781778e-005
1.781581e-005
1.781289e-005
1.780904e-005
1.780426e-005
1.779855e-005
1.779192e-005
1.778439e-005
1.777596e-005
1.776664e-005
1.775641e-005
1.774522e-005
1.773302e-005
1.771976e-005
1.770540e-005
1.768988e-005
1.767315e-005
1.765514e-005
1.763581e-005
1.761515e-005
1.759316e-005
1.756988e-005
1.754539e-005
1.751975e-005
1.749302e-005
1.746527e-005
1.743656e-005
1.740696e-005
1.737653e-005
1.734532e-005
1.731336e-005
1.728068e-005
1.724732e-005
1.721334e-005
1.717882e-005
1.714383e-005
1.710844e-005
1.707277e-005
1.703692e-005
1.700102e-005
1.696523e-005
1.692967e-005
1.689449e-005
1.685985e-005
1.682590e-005
1.679282e-005
1.676075e-005
1.672986e-005
1.670031e-005
1.667228e-005
1.664593e-005
1.662144e-005
1.659900e-005
1.657877e-005
1.656094e-005
1.654564e-005
1.653301e-005
1.652313e-005
1.651604e-005
1.651174e-005
1.651020e-005
1.651135e-005
1.651511e-005
1.652136e-005
1.652999e-005
1.654087e-005
1.655386e-005
1.656882e-005
1.658562e-005
1.660411e-005
1.662414e-005
1.664557e-005
1.666824e-005
1.669200e-005
1.671670e-005
1.674218e-005
1.676825e-005
1.679473e-005
1.682144e-005
1.684820e-005
1.687484e-005
1.690119e-005
1.692711e-005
1.695245e-005
1.697710e-005
1.700100e-005
1.702411e-005
1.704642e-005
1.706795e-005
1.708872e-005
1.710877e-005
1.712818e-005
1.714699e-005
1.716530e-005
1.718316e-005
1.720066e-005
1.721786e-005
1.723482e-005
1.725157e-005
1.726817e-005
1.728466e-005
1.730106e-005
1.731737e-005
1.733356e-005
1.734957e-005
1.736535e-005
1.738079e-005
1.739579e-005
1.741023e-005
1.742401e-005
1.743702e-005
1.744914e-005
1.746026e-005
1.747026e-005
1.747903e-005
1.748648e-005
1.749255e-005
1.749723e-005
1.750052e-005
1.750242e-005
1.750294e-005
1.750208e-005
1.749980e-005
1.749610e-005
1.749097e-005
1.748439e-005
1.747639e-005
1.746698e-005
1.745619e-005
1.744406e-005
1.743065e-005
1.741608e-005
1.740047e-005
1.738397e-005
1.736675e-005
1.734896e-005
1.733075e-005
1.731225e-005
1.729360e-005
1.727494e-005
1.725637e-005
1.723798e-005
1.721986e-005
1.720204e-005
1.718458e-005
1.716751e-005
1.715084e-005
1.713457e-005
1.711867e-005
1.710305e-005
1.708763e-005
1.707231e-005
1.705698e-005
1.704154e-005
1.702587e-005
1.700982e-005
1.699327e-005
1.697613e-005
1.695830e-005
1.693971e-005
1.692031e-005
1.690009e-005
1.687904e-005
1.685723e-005
1.683471e-005
1.681161e-005
1.678803e-005
1.676415e-005
1.674013e-005
1.671616e-005
1.669246e-005
1.666924e-005
1.664672e-005
1.662517e-005
1.660484e-005
1.658603e-005
1.656897e-005
1.655393e-005
1.654112e-005
1.653073e-005
1.652291e-005
1.651777e-005
1.651539e-005
1.651582e-005
1.651909e-005
1.652517e-005
1.653403e-005
1.654558e-005
1.655975e-005
1.657644e-005
1.659553e-005
1.661689e-005
1.664040e-005
1.666591e-005
1.669330e-005
1.672248e-005
1.675335e-005
1.678584e-005
1.681987e-005
1.685534e-005
1.689213e-005
1.693013e-005
1.696918e-005
1.700915e-005
1.704988e-005
1.709122e-005
1.713301e-005
1.717508e-005
1.721725e-005
1.725936e-005
1.730119e-005
1.734256e-005
1.738325e-005
1.742306e-005
1.746179e-005
1.749928e-005
1.753536e-005
1.756990e-005
1.760277e-005
1.763388e-005
1.766316e-005
1.769055e-005
1.771603e-005
1.773960e-005
1.776125e-005
1.778097e-005
1.779879e-005
1.781473e-005
1.782885e-005
1.784121e-005
1.785191e-005
1.786105e-005
1.786876e-005
1.787517e-005
1.788043e-005
1.788470e-005
1.788815e-005
1.789094e-005
1.789320e-005
1.789505e-005
1.789659e-005
1.789789e-005
1.789900e-005
1.789996e-005
1.790079e-005
1.790154e-005
1.790225e-005
1.790297e-005
1.790373e-005
1.790459e-005
1.790555e-005
1.790662e-005
1.790778e-005
1.790903e-005
1.791034e-005
1.791170e-005
1.791310e-005
1.791446e-005
1.791570e-005
1.791669e-005
1.791730e-005
1.791737e-005
1.791676e-005
1.791536e-005
1.791306e-005
1.790979e-005
1.790549e-005
1.790012e-005
1.789363e-005
1.788597e-005
1.787708e-005
1.786693e-005
1.785548e-005
1.784272e-005
1.782864e-005
1.781326e-005
1.779659e-005
1.777862e-005
1.775935e-005
1.773873e-005
1.771673e-005
1.769331e-005
1.766843e-005
1.764207e-005
1.761424e-005
1.758494e-005
1.755423e-005
1.752222e-005
1.748903e-005
1.745479e-005
1.741964e-005
1.738374e-005
1.734722e-005
1.731028e-005
1.727310e-005
1.723587e-005
1.719880e-005
1.716205e-005
1.712579e-005
1.709019e-005
1.705543e-005
1.702168e-005
1.698914e-005
1.695794e-005
1.692823e-005
1.690010e-005
1.687364e-005
1.684893e-005
1.682604e-005
1.680505e-005
1.678604e-005
1.676910e-005
1.675431e-005
1.674179e-005
1.673166e-005
1.672402e-005
1.671894e-005
1.671649e-005
1.671669e-005
1.671955e-005
1.672502e-005
1.673305e-005
1.674354e-005
1.675637e-005
1.677142e-005
1.678857e-005
1.680767e-005
1.682854e-005
1.685095e-005
1.687466e-005
1.689939e-005
1.692487e-005
1.695080e-005
1.697691e-005
1.700296e-005
1.702871e-005
1.705394e-005
1.707843e-005
1.710200e-005
1.712446e-005
1.714567e-005
1.716553e-005
1.718396e-005
1.720090e-005
1.721628e-005
1.723005e-005
1.724216e-005
1.725257e-005
1.726127e-005
1.726828e-005
1.727363e-005
1.727732e-005
1.727939e-005
1.727983e-005
1.727863e-005
1.727576e-005
1.727121e-005
1.726499e-005
1.725713e-005
1.724765e-005
1.723661e-005
1.722405e-005
1.721003e-005
1.719462e-005
1.717787e-005
1.715989e-005
1.714081e-005
1.712076e-005
1.709992e-005
1.707846e-005
1.705660e-005
1.703455e-005
1.701253e-005
1.699078e-005
1.696953e-005
1.694899e-005
1.692938e-005
1.691091e-005
1.689376e-005
1.687809e-005
1.686405e-005
1.685177e-005
1.684138e-005
1.683301e-005
1.682678e-005
1.682280e-005
1.682119e-005
1.682203e-005
1.682537e-005
1.683126e-005
1.683968e-005
1.685066e-005
1.686418e-005
1.688022e-005
1.689876e-005
1.691974e-005
1.694308e-005
1.696868e-005
1.699641e-005
1.702613e-005
1.705766e-005
1.709080e-005
1.712534e-005
1.716104e-005
1.719769e-005
1.723505e-005
1.727291e-005
1.731103e-005
1.734917e-005
1.738708e-005
1.742450e-005
1.746120e-005
1.749695e-005
1.753158e-005
1.756489e-005
1.759673e-005
1.762698e-005
1.765551e-005
1.768225e-005
1.770711e-005
1.773002e-005
1.775092e-005
1.776975e-005
1.778646e-005
1.780099e-005
1.781334e-005
1.782348e-005
1.783139e-005
1.783709e-005
1.784059e-005
1.784194e-005
1.784120e-005
1.783847e-005
1.783385e-005
1.782748e-005
1.781947e-005
1.780993e-005
1.779899e-005
1.778674e-005
1.777330e-005
1.775877e-005
1.774327e-005
1.772692e-005
1.770984e-005
1.769216e-005
1.767398e-005
1.765540e-005
1.763649e-005
1.761730e-005
1.759789e-005
1.757830e-005
1.755858e-005
1.753876e-005
1.751886e-005
1.749890e-005
1.747891e-005
1.745893e-005
1.743898e-005
1.741908e-005
1.739921e-005
1.737933e-005
1.735937e-005
1.733929e-005
1.731905e-005
1.729863e-005
1.727806e-005
1.725738e-005
1.723667e-005
1.721601e-005
1.719552e-005
1.717531e-005
1.715548e-005
1.713614e-005
1.711735e-005
1.709918e-005
1.708170e-005
1.706495e-005
1.704898e-005
1.703380e-005
1.701946e-005
1.700597e-005
1.699337e-005
1.698168e-005
1.697095e-005
1.696122e-005
1.695257e-005
1.694507e-005
1.693885e-005
1.693407e-005
1.693088e-005
1.692941e-005
1.692978e-005
1.693208e-005
1.693636e-005
1.694266e-005
1.695096e-005
1.696125e-005
1.697348e-005
1.698759e-005
1.700352e-005
1.702121e-005
1.704056e-005
1.706148e-005
1.708384e-005
1.710750e-005
1.713230e-005
1.715809e-005
1.718467e-005
1.721188e-005
1.723954e-005
1.726745e-005
1.729547e-005
1.732345e-005
1.735130e-005
1.737895e-005
1.740632e-005
1.743336e-005
1.745998e-005
1.748610e-005
1.751165e-005
1.753656e-005
1.756078e-005
1.758428e-005
1.760703e-005
1.762906e-005
1.765037e-005
1.767101e-005
1.769101e-005
1.771040e-005
1.772922e-005
1.774751e-005
1.776531e-005
1.778269e-005
1.779971e-005
1.781638e-005
1.783271e-005
1.784868e-005
1.786421e-005
1.787922e-005
1.789358e-005
1.790715e-005
1.791979e-005
1.793136e-005
1.794172e-005
1.795072e-005
1.795822e-005
1.796408e-005
1.796813e-005
1.797023e-005
1.797023e-005
1.796800e-005
1.796344e-005
1.795645e-005
1.794698e-005
1.793503e-005
1.792061e-005
1.790380e-005
1.788471e-005
1.786344e-005
1.784012e-005
1.781486e-005
1.778773e-005
1.775878e-005
1.772806e-005
1.769559e-005
1.766141e-005
1.762554e-005
1.758804e-005
1.754893e-005
1.750824e-005
1.746603e-005
1.742235e-005
1.737727e-005
1.733093e-005
1.728345e-005
1.723498e-005
1.718569e-005
1.713574e-005
1.708533e-005
1.703468e-005
1.698400e-005
1.693353e-005
1.688347e-005
1.683399e-005
1.678526e-005
1.673746e-005
1.669074e-005
1.664528e-005
1.660122e-005
1.655869e-005
1.651781e-005
1.647867e-005
1.644134e-005
1.640589e-005
1.637239e-005
1.634091e-005
1.631155e-005
1.628440e-005
1.625955e-005
1.623710e-005
1.621715e-005
1.619981e-005
1.618514e-005
1.617323e-005
1.616415e-005
1.615795e-005
1.615471e-005
1.615446e-005
1.615724e-005
1.616305e-005
1.617190e-005
1.618376e-005
1.619857e-005
1.621625e-005
1.623671e-005
1.625984e-005
1.628550e-005
1.631357e-005
1.634396e-005
1.637656e-005
1.641130e-005
1.644810e-005
1.648688e-005
1.652754e-005
1.657000e-005
1.661414e-005
1.665984e-005
1.670694e-005
1.675525e-005
1.680459e-005
1.685475e-005
1.690557e-005
1.695686e-005
1.700846e-005
1.706020e-005
1.711193e-005
1.716348e-005
1.721466e-005
1.726532e-005
1.731526e-005
1.736432e-005
1.741231e-005
1.745905e-005
1.750434e-005
1.754801e-005
1.758987e-005
1.762973e-005
1.766740e-005
1.770270e-005
1.773547e-005
1.776557e-005
1.779290e-005
1.781737e-005
1.783895e-005
1.785756e-005
1.787316e-005
1.788568e-005
1.789508e-005
1.790136e-005
1.790451e-005
1.790455e-005
1.790150e-005
1.789539e-005
1.788629e-005
1.787430e-005
1.785954e-005
1.784217e-005
1.782240e-005
1.780041e-005
1.777643e-005
1.775071e-005
1.772350e-005
1.769506e-005
1.766564e-005
1.763546e-005
1.760476e-005
1.757376e-005
1.754265e-005
1.751164e-005
1.748085e-005
1.745039e-005
1.742036e-005
1.739079e-005
1.736175e-005
1.733327e-005
1.730539e-005
1.727810e-005
1.725144e-005
1.722541e-005
1.720003e-005
1.717529e-005
1.715119e-005
1.712771e-005
1.710483e-005
1.708254e-005
1.706083e-005
1.703966e-005
1.701901e-005
1.699883e-005
1.697905e-005
1.695958e-005
1.694031e-005
1.692111e-005
1.690182e-005
1.688234e-005
1.686254e-005
1.684238e-005
1.682180e-005
1.680077e-005
1.677929e-005
1.675733e-005
1.673489e-005
1.671194e-005
1.668847e-005
1.666449e-005
1.663998e-005
1.661493e-005
1.658933e-005
1.656317e-005
1.653646e-005
1.650923e-005
1.648153e-005
1.645345e-005
1.642512e-005
1.639666e-005
1.636822e-005
1.633994e-005
1.631198e-005
1.628450e-005
1.625765e-005
1.623159e-005
1.620645e-005
1.618235e-005
1.615939e-005
1.613768e-005
1.611735e-005
1.609848e-005
1.608118e-005
1.606552e-005
1.605155e-005
1.603931e-005
1.602884e-005
1.602018e-005
1.601337e-005
1.600845e-005
1.600546e-005
1.600440e-005
1.600526e-005
1.600799e-005
1.601259e-005
1.601905e-005
1.602738e-005
1.603760e-005
1.604970e-005
1.606370e-005
1.607963e-005
1.609751e-005
1.611738e-005
1.613928e-005
1.616323e-005
1.618924e-005
1.621732e-005
1.624749e-005
1.627976e-005
1.631416e-005
1.635069e-005
1.638935e-005
1.643013e-005
1.647300e-005
1.651791e-005
1.656482e-005
1.661368e-005
1.666444e-005
1.671703e-005
1.677138e-005
1.682742e-005
1.688509e-005
1.694434e-005
1.700516e-005
1.706754e-005
1.713147e-005
1.719693e-005
1.726390e-005
1.733233e-005
1.740215e-005
1.747328e-005
1.754563e-005
1.761913e-005
1.769370e-005
1.776925e-005
1.784571e-005
1.792300e-005
1.800102e-005
1.807972e-005
1.815902e-005
1.823886e-005
1.831916e-005
1.839983e-005
1.848079e-005
1.856193e-005
1.864315e-005
1.872433e-005
1.880531e-005
1.888593e-005
1.896598e-005
1.904524e-005
1.912349e-005
1.920046e-005
1.927589e-005
1.934952e-005
1.942107e-005
1.949028e-005
1.955689e-005
1.962065e-005
1.968135e-005
1.973879e-005
1.979278e-005
1.984318e-005
1.988982e-005
1.993257e-005
1.997130e-005
2.000589e-005
2.003625e-005
2.006227e-005
2.008389e-005
2.010102e-005
2.011362e-005
2.012167e-005
2.012516e-005
2.012414e-005
2.011866e-005
2.010878e-005
2.009457e-005
2.007607e-005
2.005333e-005
2.002636e-005
1.999518e-005
1.995981e-005
1.992030e-005
1.987672e-005
1.982915e-005
1.977767e-005
1.972239e-005
1.966341e-005
1.960082e-005
1.953474e-005
1.946525e-005
1.939242e-005
1.931630e-005
1.923691e-005
1.915429e-005
1.906848e-005
1.897952e-005
1.888745e-005
1.879234e-005
1.869430e-005
1.859344e-005
1.848989e-005
1.838383e-005
1.827543e-005
1.816491e-005
1.805252e-005
1.793851e-005
1.782314e-005
1.770668e-005
1.758938e-005
1.747154e-005
1.735345e-005
1.723541e-005
1.711773e-005
1.700068e-005
1.688457e-005
1.676969e-005
1.665633e-005
1.654480e-005
1.643537e-005
1.632830e-005
1.622383e-005
1.612223e-005
1.602375e-005
1.592865e-005
1.583718e-005
1.574958e-005
1.566610e-005
1.558698e-005
1.551248e-005
1.544285e-005
1.537834e-005
1.531914e-005
1.526545e-005
1.521742e-005
1.517517e-005
1.513880e-005
1.510835e-005
1.508381e-005
1.506516e-005
1.505233e-005
1.504525e-005
1.504387e-005
1.504814e-005
1.505802e-005
1.507344e-005
1.509431e-005
1.512052e-005
1.515193e-005
1.518834e-005
1.522955e-005
1.527530e-005
1.532531e-005
1.537924e-005
1.543679e-005
1.549764e-005
1.556148e-005
1.562804e-005
1.569703e-005
1.576818e-005
1.584117e-005
1.591572e-005
1.599149e-005
1.606817e-005
1.614546e-005
1.622309e-005
1.630080e-005
1.637836e-005
1.645552e-005
1.653201e-005
1.660755e-005
1.668186e-005
1.675466e-005
1.682568e-005
1.689468e-005
1.696147e-005
1.702585e-005
1.708766e-005
1.714673e-005
1.720290e-005
1.725601e-005
1.730592e-005
1.735253e-005
1.739577e-005
1.743562e-005
1.747208e-005
1.750519e-005
1.753500e-005
1.756158e-005
1.758499e-005
1.760530e-005
1.762263e-005
1.763710e-005
1.764885e-005
1.765805e-005
1.766487e-005
1.766949e-005
1.767205e-005
1.767271e-005
1.767159e-005
1.766876e-005
1.766433e-005
1.765839e-005
1.765105e-005
1.764241e-005
1.763262e-005
1.762181e-005
1.761012e-005
1.759772e-005
1.758476e-005
1.757141e-005
1.755781e-005
1.754413e-005
1.753053e-005
1.751716e-005
1.750416e-005
1.749166e-005
1.747973e-005
1.746845e-005
1.745787e-005
1.744802e-005
1.743893e-005
1.743061e-005
1.742310e-005
1.741643e-005
1.741069e-005
1.740596e-005
1.740233e-005
1.739990e-005
1.739875e-005
1.739894e-005
1.740049e-005
1.740339e-005
1.740763e-005
1.741320e-005
1.742004e-005
1.742807e-005
1.743719e-005
1.744724e-005
1.745806e-005
1.746947e-005
1.748131e-005
1.749338e-005
1.750552e-005
1.751753e-005
1.752923e-005
1.754044e-005
1.755100e-005
1.756072e-005
1.756942e-005
1.757694e-005
1.758312e-005
1.758785e-005
1.759102e-005
1.759258e-005
1.759247e-005
1.759068e-005
1.758718e-005
1.758199e-005
1.757511e-005
1.756657e-005
1.755641e-005
1.754468e-005
1.753140e-005
1.751662e-005
1.750041e-005
1.748285e-005
1.746403e-005
1.744401e-005
1.742284e-005
1.740058e-005
1.737727e-005
1.735300e-005
1.732785e-005
1.730192e-005
1.727535e-005
1.724826e-005
1.722075e-005
1.719295e-005
1.716495e-005
1.713687e-005
1.710883e-005
1.708093e-005
1.705330e-005
1.702605e-005
1.699933e-005
1.697325e-005
1.694794e-005
1.692343e-005
1.689974e-005
1.687687e-005
1.685478e-005
1.683346e-005
1.681292e-005
1.679313e-005
1.677410e-005
1.675578e-005
1.673814e-005
1.672110e-005
1.670457e-005
1.668844e-005
1.667261e-005
1.665698e-005
1.664146e-005
1.662600e-005
1.661057e-005
1.659515e-005
1.657975e-005
1.656439e-005
1.654909e-005
1.653390e-005
1.651891e-005
1.650420e-005
1.648988e-005
1.647606e-005
1.646287e-005
1.645045e-005
1.643895e-005
1.642855e-005
1.641943e-005
1.641176e-005
1.640571e-005
1.640144e-005
1.639911e-005
1.639882e-005
1.640068e-005
1.640473e-005
1.641102e-005
1.641957e-005
1.643042e-005
1.644354e-005
1.645890e-005
1.647645e-005
1.649608e-005
1.651766e-005
1.654104e-005
1.656603e-005
1.659249e-005
1.662027e-005
1.664925e-005
1.667930e-005
1.671032e-005
1.674217e-005
1.677476e-005
1.680795e-005
1.684164e-005
1.687569e-005
1.690994e-005
1.694422e-005
1.697838e-005
1.701226e-005
1.704572e-005
1.707862e-005
1.711086e-005
1.714235e-005
1.717299e-005
1.720273e-005
1.723153e-005
1.725932e-005
1.728605e-005
1.731163e-005
1.733601e-005
1.735912e-005
1.738091e-005
1.740135e-005
1.742044e-005
1.743816e-005
1.745454e-005
1.746962e-005
1.748348e-005
1.749624e-005
1.750800e-005
1.751887e-005
1.752894e-005
1.753830e-005
1.754706e-005
1.755535e-005
1.756330e-005
1.757109e-005
1.757889e-005
1.758687e-005
1.759521e-005
1.760409e-005
1.761370e-005
1.762422e-005
1.763585e-005
1.764873e-005
1.766299e-005
1.767875e-005
1.769607e-005
1.771506e-005
1.773575e-005
1.775817e-005
1.778230e-005
1.780812e-005
1.783558e-005
1.786461e-005
1.789512e-005
1.792699e-005
1.796006e-005
1.799421e-005
1.802930e-005
1.806520e-005
1.810176e-005
1.813884e-005
1.817626e-005
1.821386e-005
1.825146e-005
1.828886e-005
1.832587e-005
1.836232e-005
1.839802e-005
1.843279e-005
1.846647e-005
1.849890e-005
1.852990e-005
1.855930e-005
1.858691e-005
1.861250e-005
1.863586e-005
1.865680e-005
1.867515e-005
1.869077e-005
1.870354e-005
1.871335e-005
1.872011e-005
1.872377e-005
1.872425e-005
1.872153e-005
1.871556e-005
1.870632e-005
1.869378e-005
1.867798e-005
1.865896e-005
1.863677e-005
1.861152e-005
1.858333e-005
1.855235e-005
1.851878e-005
1.848282e-005
1.844470e-005
1.840469e-005
1.836308e-005
1.832013e-005
1.827615e-005
1.823138e-005
1.818611e-005
1.814059e-005
1.809506e-005
1.804976e-005
1.800490e-005
1.796065e-005
1.791718e-005
1.787465e-005
1.783315e-005
1.779276e-005
1.775354e-005
1.771548e-005
1.767856e-005
1.764272e-005
1.760790e-005
1.757405e-005
1.754108e-005
1.750891e-005
1.747746e-005
1.744661e-005
1.741625e-005
1.738623e-005
1.735640e-005
1.732662e-005
1.729674e-005
1.726665e-005
1.723624e-005
1.720545e-005
1.717422e-005
1.714249e-005
1.711019e-005
1.707726e-005
1.704364e-005
1.700930e-005
1.697424e-005
1.693847e-005
1.690202e-005
1.686494e-005
1.682725e-005
1.678900e-005
1.675020e-005
1.671092e-005
1.667119e-005
1.663107e-005
1.659063e-005
1.654998e-005
1.650922e-005
1.646851e-005
1.642803e-005
1.638794e-005
1.634844e-005
1.630968e-005
1.627184e-005
1.623509e-005
1.619959e-005
1.616549e-005
1.613292e-005
1.610201e-005
1.607286e-005
1.604558e-005
1.602027e-005
1.599707e-005
1.597611e-005
1.595752e-005
1.594143e-005
1.592796e-005
1.591721e-005
1.590929e-005
1.590427e-005
1.590226e-005
1.590330e-005
1.590744e-005
1.591466e-005
1.592497e-005
1.593835e-005
1.595478e-005
1.597424e-005
1.599668e-005
1.602209e-005
1.605046e-005
1.608176e-005
1.611600e-005
1.615315e-005
1.619317e-005
1.623601e-005
1.628162e-005
1.632997e-005
1.638100e-005
1.643466e-005
1.649086e-005
1.654949e-005
1.661041e-005
1.667347e-005
1.673852e-005
1.680543e-005
1.687406e-005
1.694426e-005
1.701589e-005
1.708877e-005
1.716269e-005
1.723745e-005
1.731281e-005
1.738853e-005
1.746437e-005
1.754008e-005
1.761543e-005
1.769020e-005
1.776416e-005
1.783709e-005
1.790877e-005
1.797901e-005
1.804761e-005
1.811442e-005
1.817929e-005
1.824206e-005
1.830258e-005
1.836069e-005
1.841622e-005
1.846898e-005
1.851880e-005
1.856550e-005
1.860894e-005
1.864893e-005
1.868532e-005
1.871797e-005
1.874677e-005
1.877163e-005
1.879248e-005
1.880925e-005
1.882186e-005
1.883023e-005
1.883429e-005
1.883401e-005
1.882938e-005
1.882044e-005
1.880726e-005
1.878997e-005
1.876870e-005
1.874367e-005
1.871507e-005
1.868312e-005
1.864802e-005
1.860994e-005
1.856901e-005
1.852537e-005
1.847916e-005
1.843055e-005
1.837970e-005
1.832678e-005
1.827197e-005
1.821542e-005
1.815732e-005
1.809782e-005
1.803708e-005
1.797525e-005
1.791245e-005
1.784876e-005
1.778428e-005
1.771910e-005
1.765332e-005
1.758704e-005
1.752037e-005
1.745344e-005
1.738637e-005
1.731933e-005
1.725246e-005
1.718590e-005
1.711979e-005
1.705428e-005
1.698953e-005
1.692574e-005
1.686311e-005
1.680186e-005
1.674221e-005
1.668435e-005
1.662846e-005
1.657470e-005
1.652325e-005
1.647423e-005
1.642777e-005
1.638397e-005
1.634288e-005
1.630456e-005
1.626906e-005
1.623642e-005
1.620664e-005
1.617975e-005
1.615577e-005
1.613472e-005
1.611664e-005
1.610158e-005
1.608957e-005
1.608062e-005
1.607473e-005
1.607190e-005
1.607208e-005
1.607524e-005
1.608131e-005
1.609024e-005
1.610196e-005
1.611637e-005
1.613341e-005
1.615300e-005
1.617508e-005
1.619962e-005
1.622659e-005
1.625595e-005
1.628768e-005
1.632172e-005
1.635800e-005
1.639645e-005
1.643699e-005
1.647951e-005
1.652390e-005
1.657001e-005
1.661768e-005
1.666671e-005
1.671686e-005
1.676790e-005
1.681957e-005
1.687161e-005
1.692380e-005
1.697593e-005
1.702783e-005
1.707937e-005
1.713044e-005
1.718094e-005
1.723082e-005
1.727999e-005
1.732837e-005
1.737586e-005
1.742233e-005
1.746764e-005
1.751163e-005
1.755419e-005
1.759520e-005
1.763455e-005
1.767215e-005
1.770790e-005
1.774174e-005
1.777362e-005
1.780351e-005
1.783137e-005
1.785717e-005
1.788085e-005
1.790234e-005
1.792161e-005
1.793859e-005
1.795324e-005
1.796551e-005
1.797535e-005
1.798274e-005
1.798762e-005
1.798997e-005
1.798972e-005
1.798684e-005
1.798128e-005
1.797302e-005
1.796207e-005
1.794847e-005
1.793229e-005
1.791362e-005
1.789257e-005
1.786926e-005
1.784382e-005
1.781642e-005
1.778720e-005
1.775637e-005
1.772415e-005
1.769076e-005
1.765642e-005
1.762136e-005
1.758579e-005
1.754994e-005
1.751402e-005
1.747822e-005
1.744273e-005
1.740770e-005
1.737328e-005
1.733962e-005
1.730685e-005
1.727511e-005
1.724455e-005
1.721531e-005
1.718749e-005
1.716122e-005
1.713656e-005
1.711358e-005
1.709231e-005
1.707278e-005
1.705498e-005
1.703890e-005
1.702448e-005
1.701164e-005
1.700030e-005
1.699035e-005
1.698172e-005
1.697431e-005
1.696807e-005
1.696291e-005
1.695879e-005
1.695564e-005
1.695342e-005
1.695209e-005
1.695158e-005
1.695185e-005
1.695283e-005
1.695448e-005
1.695673e-005
1.695955e-005
1.696292e-005
1.696681e-005
1.697123e-005
1.697616e-005
1.698160e-005
1.698752e-005
1.699393e-005
1.700079e-005
1.700811e-005
1.701587e-005
1.702405e-005
1.703263e-005
1.704157e-005
1.705080e-005
1.706023e-005
1.706978e-005
1.707936e-005
1.708886e-005
1.709820e-005
1.710723e-005
1.711583e-005
1.712387e-005
1.713123e-005
1.713784e-005
1.714363e-005
1.714856e-005
1.715261e-005
1.715573e-005
1.715791e-005
1.715917e-005
1.715958e-005
1.715924e-005
1.715827e-005
1.715679e-005
1.715496e-005
1.715296e-005
1.715097e-005
1.714922e-005
1.714790e-005
1.714715e-005
1.714709e-005
1.714777e-005
1.714919e-005
1.715134e-005
1.715417e-005
1.715762e-005
1.716162e-005
1.716613e-005
1.717111e-005
1.717654e-005
1.718241e-005
1.718872e-005
1.719546e-005
1.720263e-005
1.721022e-005
1.721822e-005
1.722663e-005
1.723543e-005
1.724460e-005
1.725413e-005
1.726401e-005
1.727425e-005
1.728487e-005
1.729586e-005
1.730721e-005
1.731890e-005
1.733087e-005
1.734309e-005
1.735551e-005
1.736807e-005
1.738072e-005
1.739340e-005
1.740603e-005
1.741854e-005
1.743085e-005
1.744287e-005
1.745452e-005
1.746571e-005
1.747632e-005
1.748624e-005
1.749532e-005
1.750342e-005
1.751035e-005
1.751594e-005
1.752002e-005
1.752245e-005
1.752311e-005
1.752193e-005
1.751887e-005
1.751390e-005
1.750702e-005
1.749826e-005
1.748767e-005
1.747533e-005
1.746133e-005
1.744578e-005
1.742880e-005
1.741053e-005
1.739113e-005
1.737080e-005
1.734975e-005
1.732820e-005
1.730639e-005
1.728451e-005
1.726280e-005
1.724144e-005
1.722063e-005
1.720057e-005
1.718146e-005
1.716350e-005
1.714687e-005
1.713176e-005
1.711834e-005
1.710676e-005
1.709720e-005
1.708980e-005
1.708472e-005
1.708205e-005
1.708190e-005
1.708434e-005
1.708944e-005
1.709725e-005
1.710784e-005
1.712124e-005
1.713743e-005
1.715640e-005
1.717810e-005
1.720245e-005
1.722937e-005
1.725874e-005
1.729043e-005
1.732428e-005
1.736013e-005
1.739779e-005
1.743706e-005
1.747777e-005
1.751974e-005
1.756281e-005
1.760678e-005
1.765148e-005
1.769671e-005
1.774228e-005
1.778802e-005
1.783372e-005
1.787919e-005
1.792422e-005
1.796857e-005
1.801205e-005
1.805447e-005
1.809565e-005
1.813543e-005
1.817371e-005
1.821036e-005
1.824533e-005
1.827855e-005
1.830996e-005
1.833952e-005
1.836717e-005
1.839287e-005
1.841662e-005
1.843839e-005
1.845819e-005
1.847603e-005
1.849189e-005
1.850575e-005
1.851759e-005
1.852740e-005
1.853518e-005
1.854091e-005
1.854459e-005
1.854623e-005
1.854583e-005
1.854340e-005
1.853894e-005
1.853247e-005
1.852404e-005
1.851371e-005
1.850153e-005
1.848758e-005
1.847194e-005
1.845468e-005
1.843588e-005
1.841556e-005
1.839377e-005
1.837050e-005
1.834574e-005
1.831946e-005
1.829164e-005
1.826226e-005
1.823129e-005
1.819873e-005
1.816457e-005
1.812885e-005
1.809156e-005
1.805273e-005
1.801236e-005
1.797048e-005
1.792711e-005
1.788228e-005
1.783601e-005
1.778829e-005
1.773911e-005
1.768849e-005
1.763644e-005
1.758303e-005
1.752834e-005
1.747244e-005
1.741543e-005
1.735740e-005
1.729848e-005
1.723880e-005
1.717854e-005
1.711789e-005
1.705703e-005
1.699614e-005
1.693537e-005
1.687489e-005
1.681485e-005
1.675543e-005
1.669679e-005
1.663909e-005
1.658250e-005
1.652717e-005
1.647324e-005
1.642086e-005
1.637010e-005
1.632105e-005
1.627375e-005
1.622823e-005
1.618452e-005
1.614262e-005
1.610257e-005
1.606440e-005
1.602817e-005
1.599393e-005
1.596176e-005
1.593172e-005
1.590389e-005
1.587833e-005
1.585509e-005
1.583421e-005
1.581571e-005
1.579962e-005
1.578593e-005
1.577465e-005
1.576575e-005
1.575921e-005
1.575497e-005
1.575300e-005
1.575321e-005
1.575557e-005
1.576000e-005
1.576644e-005
1.577483e-005
1.578505e-005
1.579704e-005
1.581069e-005
1.582592e-005
1.584264e-005
1.586076e-005
1.588019e-005
1.590083e-005
1.592260e-005
1.594540e-005
1.596915e-005
1.599373e-005
1.601901e-005
1.604487e-005
1.607119e-005
1.609786e-005
1.612485e-005
1.615211e-005
1.617965e-005
1.620750e-005
1.623573e-005
1.626440e-005
1.629359e-005
1.632339e-005
1.635389e-005
1.638519e-005
1.641739e-005
1.645057e-005
1.648480e-005
1.652011e-005
1.655651e-005
1.659402e-005
1.663261e-005
1.667224e-005
1.671288e-005
1.675443e-005
1.679681e-005
1.683991e-005
1.688360e-005
1.692776e-005
1.697230e-005
1.701713e-005
1.706216e-005
1.710732e-005
1.715253e-005
1.719772e-005
1.724283e-005
1.728782e-005
1.733262e-005
1.737719e-005
1.742147e-005
1.746544e-005
1.750911e-005
1.755250e-005
1.759563e-005
1.763856e-005
1.768134e-005
1.772403e-005
1.776667e-005
1.780928e-005
1.785184e-005
1.789435e-005
1.793680e-005
1.797918e-005
1.802142e-005
1.806349e-005
1.810527e-005
1.814670e-005
1.818764e-005
1.822795e-005
1.826750e-005
1.830609e-005
1.834356e-005
1.837972e-005
1.841440e-005
1.844748e-005
1.847884e-005
1.850837e-005
1.853601e-005
1.856164e-005
1.858520e-005
1.860661e-005
1.862585e-005
1.864288e-005
1.865770e-005
1.867030e-005
1.868069e-005
1.868888e-005
1.869487e-005
1.869868e-005
1.870031e-005
1.869976e-005
1.869701e-005
1.869204e-005
1.868478e-005
1.867518e-005
1.866319e-005
1.864871e-005
1.863167e-005
1.861199e-005
1.858962e-005
1.856456e-005
1.853686e-005
1.850661e-005
1.847387e-005
1.843875e-005
1.840132e-005
1.836172e-005
1.832007e-005
1.827656e-005
1.823138e-005
1.818472e-005
1.813679e-005
1.808780e-005
1.803795e-005
1.798745e-005
1.793652e-005
1.788534e-005
1.783410e-005
1.778300e-005
1.773218e-005
1.768182e-005
1.763206e-005
1.758301e-005
1.753480e-005
1.748748e-005
1.744112e-005
1.739573e-005
1.735134e-005
1.730793e-005
1.726547e-005
1.722391e-005
1.718320e-005
1.714332e-005
1.710427e-005
1.706605e-005
1.702865e-005
1.699205e-005
1.695625e-005
1.692124e-005
1.688703e-005
1.685367e-005
1.682123e-005
1.678979e-005
1.675944e-005
1.673028e-005
1.670238e-005
1.667577e-005
1.665050e-005
1.662654e-005
1.660390e-005
1.658257e-005
1.656256e-005
1.654389e-005
1.652660e-005
1.651072e-005
1.649632e-005
1.648345e-005
1.647218e-005
1.646258e-005
1.645472e-005
1.644864e-005
1.644435e-005
1.644186e-005
1.644109e-005
1.644198e-005
1.644440e-005
1.644823e-005
1.645334e-005
1.645959e-005
1.646688e-005
1.647510e-005
1.648419e-005
1.649408e-005
1.650471e-005
1.651603e-005
1.652799e-005
1.654054e-005
1.655363e-005
1.656723e-005
1.658132e-005
1.659590e-005
1.661096e-005
1.662651e-005
1.664256e-005
1.665911e-005
1.667619e-005
1.669385e-005
1.671213e-005
1.673109e-005
1.675078e-005
1.677125e-005
1.679252e-005
1.681464e-005
1.683761e-005
1.686145e-005
1.688617e-005
1.691178e-005
1.693827e-005
1.696561e-005
1.699377e-005
1.702272e-005
1.705242e-005
1.708285e-005
1.711398e-005
1.714578e-005
1.717824e-005
1.721134e-005
1.724503e-005
1.727929e-005
1.731405e-005
1.734926e-005
1.738485e-005
1.742075e-005
1.745687e-005
1.749311e-005
1.752936e-005
1.756552e-005
1.760150e-005
1.763715e-005
1.767235e-005
1.770693e-005
1.774070e-005
1.777348e-005
1.780512e-005
1.783547e-005
1.786437e-005
1.789166e-005
1.791718e-005
1.794076e-005
1.796225e-005
1.798149e-005
1.799837e-005
1.801278e-005
1.802464e-005
1.803390e-005
1.804053e-005
1.804452e-005
1.804588e-005
1.804464e-005
1.804080e-005
1.803442e-005
1.802555e-005
1.801428e-005
1.800069e-005
1.798488e-005
1.796691e-005
1.794688e-005
1.792486e-005
1.790095e-005
1.787526e-005
1.784788e-005
1.781897e-005
1.778864e-005
1.775707e-005
1.772438e-005
1.769071e-005
1.765621e-005
1.762101e-005
1.758526e-005
1.754907e-005
1.751256e-005
1.747585e-005
1.743910e-005
1.740250e-005
1.736624e-005
1.733052e-005
1.729556e-005
1.726156e-005
1.722872e-005
1.719723e-005
1.716725e-005
1.713893e-005
1.711237e-005
1.708766e-005
1.706485e-005
1.704401e-005
1.702515e-005
1.700828e-005
1.699340e-005
1.698047e-005
1.696942e-005
1.696019e-005
1.695269e-005
1.694685e-005
1.694256e-005
1.693973e-005
1.693822e-005
1.693790e-005
1.693867e-005
1.694041e-005
1.694306e-005
1.694651e-005
1.695071e-005
1.695559e-005
1.696111e-005
1.696725e-005
1.697402e-005
1.698147e-005
1.698965e-005
1.699867e-005
1.700862e-005
1.701955e-005
1.703154e-005
1.704460e-005
1.705875e-005
1.707398e-005
1.709025e-005
1.710753e-005
1.712576e-005
1.714487e-005
1.716472e-005
1.718515e-005
1.720591e-005
1.722670e-005
1.724723e-005
1.726716e-005
1.728615e-005
1.730383e-005
1.731986e-005
1.733391e-005
1.734568e-005
1.735496e-005
1.736156e-005
1.736531e-005
1.736608e-005
1.736377e-005
1.735829e-005
1.734963e-005
1.733776e-005
1.732271e-005
1.730451e-005
1.728322e-005
1.725891e-005
1.723169e-005
1.720167e-005
1.716896e-005
1.713372e-005
1.709612e-005
1.705637e-005
1.701472e-005
1.697147e-005
1.692695e-005
1.688156e-005
1.683569e-005
1.678979e-005
1.674430e-005
1.669967e-005
1.665631e-005
1.661463e-005
1.657502e-005
1.653783e-005
1.650338e-005
1.647191e-005
1.644360e-005
1.641855e-005
1.639680e-005
1.637834e-005
1.636317e-005
1.635124e-005
1.634252e-005
1.633697e-005
1.633456e-005
1.633525e-005
1.633902e-005
1.634587e-005
1.635580e-005
1.636881e-005
1.638489e-005
1.640402e-005
1.642614e-005
1.645118e-005
1.647908e-005
1.650976e-005
1.654318e-005
1.657927e-005
1.661793e-005
1.665906e-005
1.670253e-005
1.674824e-005
1.679602e-005
1.684573e-005
1.689717e-005
1.695015e-005
1.700442e-005
1.705974e-005
1.711588e-005
1.717263e-005
1.722981e-005
1.728724e-005
1.734479e-005
1.740230e-005
1.745963e-005
1.751667e-005
1.757331e-005
1.762945e-005
1.768498e-005
1.773982e-005
1.779390e-005
1.784714e-005
1.789951e-005
1.795094e-005
1.800139e-005
1.805078e-005
1.809907e-005
1.814617e-005
1.819204e-005
1.823657e-005
1.827969e-005
1.832129e-005
1.836129e-005
1.839958e-005
1.843607e-005
1.847065e-005
1.850321e-005
1.853368e-005
1.856197e-005
1.858801e-005
1.861174e-005
1.863310e-005
1.865204e-005
1.866848e-005
1.868238e-005
1.869365e-005
1.870222e-005
1.870802e-005
1.871096e-005
1.871090e-005
1.870771e-005
1.870123e-005
1.869134e-005
1.867792e-005
1.866087e-005
1.864013e-005
1.861563e-005
1.858733e-005
1.855523e-005
1.851933e-005
1.847970e-005
1.843640e-005
1.838952e-005
1.833915e-005
1.828537e-005
1.822830e-005
1.816807e-005
1.810485e-005
1.803887e-005
1.797036e-005
1.789962e-005
1.782697e-005
1.775274e-005
1.767729e-005
1.760103e-005
1.752432e-005
1.744757e-005
1.737114e-005
1.729542e-005
1.722079e-005
1.714763e-005
1.707631e-005
1.700719e-005
1.694061e-005
1.687686e-005
1.681625e-005
1.675907e-005
1.670559e-005
1.665606e-005
1.661068e-005
1.656966e-005
1.653315e-005
1.650128e-005
1.647414e-005
1.645180e-005
1.643428e-005
1.642154e-005
1.641353e-005
1.641015e-005
1.641129e-005
1.641680e-005
1.642650e-005
1.644015e-005
1.645749e-005
1.647827e-005
1.650223e-005
1.652914e-005
1.655875e-005
1.659083e-005
1.662513e-005
1.666142e-005
1.669946e-005
1.673900e-005
1.677980e-005
1.682162e-005
1.686422e-005
1.690735e-005
1.695074e-005
1.699413e-005
1.703727e-005
1.707990e-005
1.712178e-005
1.716270e-005
1.720242e-005
1.724076e-005
1.727754e-005
1.731261e-005
1.734585e-005
1.737714e-005
1.740642e-005
1.743360e-005
1.745865e-005
1.748150e-005
1.750212e-005
1.752044e-005
1.753642e-005
1.754997e-005
1.756102e-005
1.756951e-005
1.757540e-005
1.757867e-005
1.757934e-005
1.757738e-005
1.757280e-005
1.756559e-005
1.755578e-005
1.754341e-005
1.752853e-005
1.751117e-005
1.749136e-005
1.746913e-005
1.744451e-005
1.741754e-005
1.738827e-005
1.735673e-005
1.732296e-005
1.728699e-005
1.724888e-005
1.720872e-005
1.716663e-005
1.712277e-005
1.707732e-005
1.703047e-005
1.698240e-005
1.693334e-005
1.688349e-005
1.683307e-005
1.678234e-005
1.673152e-005
1.668087e-005
1.663064e-005
1.658107e-005
1.653240e-005
1.648486e-005
1.643868e-005
1.639406e-005
1.635116e-005
1.631017e-005
1.627123e-005
1.623450e-005
1.620012e-005
1.616823e-005
1.613895e-005
1.611239e-005
1.608864e-005
1.606781e-005
1.604996e-005
1.603514e-005
1.602338e-005
1.601470e-005
1.600911e-005
1.600663e-005
1.600726e-005
1.601101e-005
1.601784e-005
1.602768e-005
1.604044e-005
1.605599e-005
1.607422e-005
1.609498e-005
1.611816e-005
1.614360e-005
1.617112e-005
1.620056e-005
1.623173e-005
1.626446e-005
1.629858e-005
1.633393e-005
1.637035e-005
1.640768e-005
1.644575e-005
1.648439e-005
1.652344e-005
1.656272e-005
1.660207e-005
1.664134e-005
1.668038e-005
1.671907e-005
1.675732e-005
1.679508e-005
1.683238e-005
1.686924e-005
1.690573e-005
1.694196e-005
1.697802e-005
1.701405e-005
1.705016e-005
1.708646e-005
1.712306e-005
1.716012e-005
1.719778e-005
1.723619e-005
1.727547e-005
1.731572e-005
1.735702e-005
1.739942e-005
1.744295e-005
1.748764e-005
1.753347e-005
1.758040e-005
1.762833e-005
1.767716e-005
1.772675e-005
1.777699e-005
1.782773e-005
1.787883e-005
1.793012e-005
1.798141e-005
1.803252e-005
1.808327e-005
1.813349e-005
1.818300e-005
1.823161e-005
1.827913e-005
1.832535e-005
1.837006e-005
1.841302e-005
1.845401e-005
1.849274e-005
1.852894e-005
1.856233e-005
1.859266e-005
1.861969e-005
1.864325e-005
1.866319e-005
1.867939e-005
1.869176e-005
1.870026e-005
1.870483e-005
1.870544e-005
1.870208e-005
1.869478e-005
1.868356e-005
1.866850e-005
1.864969e-005
1.862723e-005
1.860125e-005
1.857192e-005
1.853941e-005
1.850396e-005
1.846580e-005
1.842519e-005
1.838240e-005
1.833770e-005
1.829134e-005
1.824357e-005
1.819462e-005
1.814474e-005
1.809416e-005
1.804308e-005
1.799168e-005
1.794007e-005
1.788831e-005
1.783644e-005
1.778444e-005
1.773230e-005
1.768002e-005
1.762759e-005
1.757503e-005
1.752237e-005
1.746965e-005
1.741694e-005
1.736432e-005
1.731189e-005
1.725971e-005
1.720787e-005
1.715641e-005
1.710540e-005
1.705492e-005
1.700504e-005
1.695587e-005
1.690750e-005
1.686000e-005
1.681341e-005
1.676775e-005
1.672302e-005
1.667922e-005
1.663636e-005
1.659446e-005
1.655354e-005
1.651365e-005
1.647481e-005
1.643707e-005
1.640048e-005
1.636512e-005
1.633105e-005
1.629838e-005
1.626724e-005
1.623775e-005
1.621005e-005
1.618428e-005
1.616056e-005
1.613902e-005
1.611977e-005
1.610291e-005
1.608852e-005
1.607667e-005
1.606739e-005
1.606071e-005
1.605665e-005
1.605517e-005
1.605624e-005
1.605977e-005
1.606564e-005
1.607372e-005
1.608387e-005
1.609600e-005
1.611001e-005
1.612586e-005
1.614348e-005
1.616285e-005
1.618391e-005
1.620663e-005
1.623100e-005
1.625702e-005
1.628470e-005
1.631404e-005
1.634501e-005
1.637759e-005
1.641173e-005
1.644738e-005
1.648448e-005
1.652293e-005
1.656266e-005
1.660357e-005
1.664556e-005
1.668853e-005
1.673236e-005
1.677698e-005
1.682228e-005
1.686819e-005
1.691462e-005
1.696145e-005
1.700857e-005
1.705586e-005
1.710316e-005
1.715033e-005
1.719722e-005
1.724368e-005
1.728955e-005
1.733472e-005
1.737902e-005
1.742234e-005
1.746455e-005
1.750553e-005
1.754519e-005
1.758346e-005
1.762027e-005
1.765558e-005
1.768935e-005
1.772155e-005
1.775214e-005
1.778107e-005
1.780828e-005
1.783371e-005
1.785725e-005
1.787882e-005
1.789836e-005
1.791580e-005
1.793108e-005
1.794417e-005
1.795500e-005
1.796356e-005
1.796981e-005
1.797376e-005
1.797543e-005
1.797491e-005
1.797232e-005
1.796778e-005
1.796144e-005
1.795344e-005
1.794390e-005
1.793297e-005
1.792080e-005
1.790755e-005
1.789336e-005
1.787840e-005
1.786279e-005
1.784670e-005
1.783026e-005
1.781364e-005
1.779694e-005
1.778029e-005
1.776376e-005
1.774746e-005
1.773149e-005
1.771600e-005
1.770114e-005
1.768707e-005
1.767392e-005
1.766183e-005
1.765092e-005
1.764125e-005
1.763290e-005
1.762588e-005
1.762020e-005
1.761584e-005
1.761280e-005
1.761107e-005
1.761060e-005
1.761136e-005
1.761324e-005
1.761616e-005
1.762001e-005
1.762470e-005
1.763014e-005
1.763623e-005
1.764290e-005
1.765006e-005
1.765762e-005
1.766551e-005
1.767362e-005
1.768190e-005
1.769025e-005
1.769857e-005
1.770675e-005
1.771469e-005
1.772227e-005
1.772941e-005
1.773600e-005
1.774193e-005
1.774708e-005
1.775136e-005
1.775465e-005
1.775687e-005
1.775796e-005
1.775788e-005
1.775666e-005
1.775433e-005
1.775097e-005
1.774666e-005
1.774152e-005
1.773569e-005
1.772929e-005
1.772245e-005
1.771527e-005
1.770789e-005
1.770041e-005
1.769295e-005
1.768562e-005
1.767852e-005
1.767172e-005
1.766531e-005
1.765936e-005
1.765395e-005
1.764918e-005
1.764514e-005
1.764191e-005
1.763957e-005
1.763817e-005
1.763774e-005
1.763832e-005
1.763990e-005
1.764248e-005
1.764603e-005
1.765052e-005
1.765590e-005
1.766213e-005
1.766919e-005
1.767700e-005
1.768553e-005
1.769470e-005
1.770444e-005
1.771466e-005
1.772527e-005
1.773614e-005
1.774713e-005
1.775811e-005
1.776893e-005
1.777943e-005
1.778946e-005
1.779885e-005
1.780741e-005
1.781495e-005
1.782131e-005
1.782634e-005
1.782993e-005
1.783196e-005
1.783234e-005
1.783096e-005
1.782774e-005
1.782259e-005
1.781543e-005
1.780618e-005
1.779478e-005
1.778118e-005
1.776536e-005
1.774731e-005
1.772708e-005
1.770474e-005
1.768037e-005
1.765410e-005
1.762606e-005
1.759637e-005
1.756519e-005
1.753264e-005
1.749886e-005
1.746399e-005
1.742817e-005
1.739154e-005
1.735425e-005
1.731643e-005
1.727818e-005
1.723960e-005
1.720074e-005
1.716166e-005
1.712240e-005
1.708301e-005
1.704352e-005
1.700401e-005
1.696451e-005
1.692509e-005
1.688578e-005
1.684664e-005
1.680770e-005
1.676896e-005
1.673045e-005
1.669218e-005
1.665418e-005
1.661649e-005
1.657918e-005
1.654232e-005
1.650600e-005
1.647030e-005
1.643530e-005
1.640105e-005
1.636762e-005
1.633505e-005
1.630340e-005
1.627268e-005
1.624289e-005
1.621401e-005
1.618603e-005
1.615895e-005
1.613277e-005
1.610752e-005
1.608325e-005
1.606003e-005
1.603792e-005
1.601696e-005
1.599724e-005
1.597885e-005
1.596192e-005
1.594660e-005
1.593302e-005
1.592134e-005
1.591172e-005
1.590434e-005
1.589940e-005
1.589709e-005
1.589762e-005
1.590115e-005
1.590788e-005
1.591795e-005
1.593151e-005
1.594866e-005
1.596944e-005
1.599387e-005
1.602196e-005
1.605368e-005
1.608897e-005
1.612778e-005
1.617001e-005
1.621552e-005
1.626416e-005
1.631571e-005
1.636994e-005
1.642658e-005
1.648535e-005
1.654598e-005
1.660814e-005
1.667151e-005
1.673577e-005
1.680059e-005
1.686568e-005
1.693077e-005
1.699563e-005
1.706004e-005
1.712379e-005
1.718668e-005
1.724851e-005
1.730910e-005
1.736827e-005
1.742584e-005
1.748159e-005
1.753534e-005
1.758689e-005
1.763606e-005
1.768268e-005
1.772659e-005
1.776765e-005
1.780574e-005
1.784076e-005
1.787266e-005
1.790142e-005
1.792703e-005
1.794949e-005
1.796882e-005
1.798503e-005
1.799813e-005
1.800816e-005
1.801517e-005
1.801921e-005
1.802036e-005
1.801867e-005
1.801422e-005
1.800709e-005
1.799734e-005
1.798504e-005
1.797021e-005
1.795290e-005
1.793316e-005
1.791107e-005
1.788674e-005
1.786029e-005
1.783186e-005
1.780158e-005
1.776957e-005
1.773594e-005
1.770078e-005
1.766418e-005
1.762622e-005
1.758698e-005
1.754654e-005
1.750495e-005
1.746230e-005
1.741865e-005
1.737406e-005
1.732859e-005
1.728228e-005
1.723524e-005
1.718756e-005
1.713936e-005
1.709077e-005
1.704192e-005
1.699293e-005
1.694390e-005
1.689494e-005
1.684616e-005
1.679765e-005
1.674949e-005
1.670177e-005
1.665456e-005
1.660791e-005
1.656186e-005
1.651643e-005
1.647167e-005
1.642763e-005
1.638435e-005
1.634191e-005
1.630036e-005
1.625977e-005
1.622021e-005
1.618178e-005
1.614457e-005
1.610868e-005
1.607422e-005
1.604135e-005
1.601023e-005
1.598101e-005
1.595387e-005
1.592896e-005
1.590643e-005
1.588640e-005
1.586899e-005
1.585430e-005
1.584243e-005
1.583346e-005
1.582749e-005
1.582458e-005
1.582483e-005
1.582832e-005
1.583511e-005
1.584529e-005
1.585891e-005
1.587605e-005
1.589678e-005
1.592120e-005
1.594940e-005
1.598149e-005
1.601752e-005
1.605752e-005
1.610149e-005
1.614942e-005
1.620123e-005
1.625685e-005
1.631615e-005
1.637896e-005
1.644510e-005
1.651438e-005
1.658656e-005
1.666140e-005
1.673862e-005
1.681791e-005
1.689894e-005
1.698136e-005
1.706484e-005
1.714901e-005
1.723355e-005
1.731811e-005
1.740240e-005
1.748612e-005
1.756899e-005
1.765075e-005
1.773111e-005
1.780981e-005
1.788657e-005
1.796117e-005
1.803338e-005
1.810301e-005
1.816990e-005
1.823389e-005
1.829486e-005
1.835269e-005
1.840729e-005
1.845860e-005
1.850657e-005
1.855113e-005
1.859219e-005
1.862967e-005
1.866347e-005
1.869355e-005
1.871985e-005
1.874234e-005
1.876100e-005
1.877583e-005
1.878684e-005
1.879405e-005
1.879753e-005
1.879733e-005
1.879355e-005
1.878629e-005
1.877568e-005
1.876185e-005
1.874495e-005
1.872515e-005
1.870260e-005
1.867743e-005
1.864976e-005
1.861968e-005
1.858728e-005
1.855268e-005
1.851599e-005
1.847737e-005
1.843694e-005
1.839483e-005
1.835117e-005
1.830604e-005
1.825956e-005
1.821185e-005
1.816306e-005
1.811337e-005
1.806296e-005
1.801201e-005
1.796070e-005
1.790917e-005
1.785755e-005
1.780593e-005
1.775443e-005
1.770315e-005
1.765222e-005
1.760180e-005
1.755203e-005
1.750304e-005
1.745494e-005
1.740784e-005
1.736186e-005
1.731711e-005
1.727372e-005
1.723177e-005
1.719135e-005
1.715256e-005
1.711547e-005
1.708020e-005
1.704688e-005
1.701563e-005
1.698658e-005
1.695987e-005
1.693563e-005
1.691398e-005
1.689504e-005
1.687891e-005
1.686564e-005
1.685526e-005
1.684775e-005
1.684309e-005
1.684121e-005
1.684206e-005
1.684554e-005
1.685158e-005
1.686008e-005
1.687091e-005
1.688397e-005
1.689918e-005
1.691645e-005
1.693573e-005
1.695698e-005
1.698014e-005
1.700516e-005
1.703197e-005
1.706047e-005
1.709058e-005
1.712218e-005
1.715520e-005
1.718951e-005
1.722501e-005
1.726155e-005
1.729900e-005
1.733720e-005
1.737600e-005
1.741522e-005
1.745471e-005
1.749430e-005
1.753382e-005
1.757310e-005
1.761197e-005
1.765026e-005
1.768780e-005
1.772445e-005
1.776006e-005
1.779449e-005
1.782764e-005
1.785941e-005
1.788969e-005
1.791837e-005
1.794533e-005
1.797044e-005
1.799357e-005
1.801462e-005
1.803350e-005
1.805012e-005
1.806440e-005
1.807630e-005
1.808575e-005
1.809273e-005
1.809722e-005
1.809920e-005
1.809870e-005
1.809572e-005
1.809032e-005
1.808253e-005
1.807243e-005
1.806006e-005
1.804546e-005
1.802868e-005
1.800975e-005
1.798872e-005
1.796562e-005
1.794048e-005
1.791334e-005
1.788422e-005
1.785316e-005
1.782021e-005
1.778541e-005
1.774883e-005
1.771053e-005
1.767054e-005
1.762888e-005
1.758557e-005
1.754059e-005
1.749396e-005
1.744569e-005
1.739581e-005
1.734437e-005
1.729144e-005
1.723707e-005
1.718135e-005
1.712437e-005
1.706620e-005
1.700696e-005
1.694679e-005
1.688588e-005
1.682447e-005
1.676285e-005
1.670135e-005
1.664031e-005
1.658012e-005
1.652112e-005
1.646367e-005
1.640809e-005
1.635467e-005
1.630366e-005
1.625530e-005
1.620977e-005
1.616723e-005
1.612785e-005
1.609176e-005
1.605909e-005
1.602998e-005
1.600451e-005
1.598277e-005
1.596481e-005
1.595066e-005
1.594030e-005
1.593369e-005
1.593071e-005
1.593125e-005
1.593515e-005
1.594225e-005
1.595238e-005
1.596532e-005
1.598088e-005
1.599885e-005
1.601902e-005
1.604121e-005
1.606521e-005
1.609082e-005
1.611784e-005
1.614604e-005
1.617518e-005
1.620504e-005
1.623539e-005
1.626601e-005
1.629666e-005
1.632712e-005
1.635717e-005
1.638662e-005
1.641529e-005
1.644306e-005
1.646981e-005
1.649544e-005
1.651987e-005
1.654305e-005
1.656494e-005
1.658551e-005
1.660471e-005
1.662252e-005
1.663889e-005
1.665380e-005
1.666721e-005
1.667908e-005
1.668941e-005
1.669820e-005
1.670551e-005
1.671141e-005
1.671598e-005
1.671935e-005
1.672166e-005
1.672308e-005
1.672380e-005
1.672399e-005
1.672384e-005
1.672352e-005
1.672318e-005
1.672297e-005
1.672306e-005
1.672357e-005
1.672467e-005
1.672651e-005
1.672924e-005
1.673297e-005
1.673784e-005
1.674394e-005
1.675136e-005
1.676015e-005
1.677036e-005
1.678205e-005
1.679524e-005
1.680999e-005
1.682633e-005
1.684431e-005
1.686392e-005
1.688520e-005
1.690816e-005
1.693282e-005
1.695922e-005
1.698737e-005
1.701728e-005
1.704896e-005
1.708238e-005
1.711752e-005
1.715438e-005
1.719290e-005
1.723306e-005
1.727481e-005
1.731810e-005
1.736286e-005
1.740898e-005
1.745633e-005
1.750473e-005
1.755401e-005
1.760394e-005
1.765429e-005
1.770482e-005
1.775529e-005
1.780547e-005
1.785511e-005
1.790397e-005
1.795183e-005
1.799846e-005
1.804367e-005
1.808730e-005
1.812920e-005
1.816924e-005
1.820735e-005
1.824345e-005
1.827749e-005
1.830939e-005
1.833911e-005
1.836659e-005
1.839179e-005
1.841467e-005
1.843521e-005
1.845340e-005
1.846924e-005
1.848273e-005
1.849388e-005
1.850272e-005
1.850925e-005
1.851348e-005
1.851539e-005
1.851499e-005
1.851228e-005
1.850729e-005
1.850004e-005
1.849055e-005
1.847885e-005
1.846498e-005
1.844895e-005
1.843079e-005
1.841053e-005
1.838820e-005
1.836385e-005
1.833753e-005
1.830927e-005
1.827908e-005
1.824692e-005
1.821277e-005
1.817657e-005
1.813831e-005
1.809793e-005
1.805538e-005
1.801058e-005
1.796347e-005
1.791397e-005
1.786203e-005
1.780762e-005
1.775069e-005
1.769121e-005
1.762912e-005
1.756437e-005
1.749694e-005
1.742684e-005
1.735411e-005
1.727880e-005
1.720102e-005
1.712089e-005
1.703854e-005
1.695416e-005
1.686792e-005
1.678006e-005
1.669084e-005
1.660056e-005
1.650957e-005
1.641823e-005
1.632696e-005
1.623618e-005
1.614630e-005
1.605774e-005
1.597085e-005
1.588599e-005
1.580347e-005
1.572357e-005
1.564655e-005
1.557262e-005
1.550198e-005
1.543480e-005
1.537123e-005
1.531140e-005
1.525543e-005
1.520342e-005
1.515545e-005
1.511160e-005
1.507194e-005
1.503653e-005
1.500543e-005
1.497867e-005
1.495628e-005
1.493827e-005
1.492462e-005
1.491531e-005
1.491031e-005
1.490955e-005
1.491298e-005
1.492053e-005
1.493213e-005
1.494768e-005
1.496712e-005
1.499034e-005
1.501725e-005
1.504775e-005
1.508174e-005
1.511908e-005
1.515965e-005
1.520332e-005
1.524996e-005
1.529940e-005
1.535149e-005
1.540606e-005
1.546297e-005
1.552203e-005
1.558311e-005
1.564606e-005
1.571076e-005
1.577706e-005
1.584484e-005
1.591399e-005
1.598441e-005
1.605599e-005
1.612863e-005
1.620224e-005
1.627672e-005
1.635197e-005
1.642792e-005
1.650448e-005
1.658157e-005
1.665911e-005
1.673698e-005
1.681509e-005
1.689330e-005
1.697149e-005
1.704955e-005
1.712735e-005
1.720479e-005
1.728175e-005
1.735813e-005
1.743384e-005
1.750878e-005
1.758284e-005
1.765588e-005
1.772776e-005
1.779832e-005
1.786739e-005
1.793481e-005
1.800039e-005
1.806401e-005
1.812552e-005
1.818479e-005
1.824171e-005
1.829618e-005
1.834810e-005
1.839740e-005
1.844400e-005
1.848784e-005
1.852888e-005
1.856710e-005
1.860251e-005
1.863513e-005
1.866496e-005
1.869204e-005
1.871641e-005
1.873814e-005
1.875731e-005
1.877400e-005
1.878828e-005
1.880022e-005
1.880989e-005
1.881739e-005
1.882278e-005
1.882615e-005
1.882754e-005
1.882696e-005
1.882443e-005
1.881999e-005
1.881366e-005
1.880550e-005
1.879555e-005
1.878388e-005
1.877056e-005
1.875565e-005
1.873922e-005
1.872137e-005
1.870221e-005
1.868184e-005
1.866039e-005
1.863794e-005
1.861458e-005
1.859038e-005
1.856542e-005
1.853974e-005
1.851335e-005
1.848625e-005
1.845841e-005
1.842977e-005
1.840029e-005
1.836991e-005
1.833856e-005
1.830615e-005
1.827262e-005
1.823785e-005
1.820175e-005
1.816428e-005
1.812539e-005
1.808509e-005
1.804341e-005
1.800036e-005
1.795596e-005
1.791026e-005
1.786330e-005
1.781517e-005
1.776592e-005
1.771565e-005
1.766447e-005
1.761251e-005
1.755993e-005
1.750691e-005
1.745363e-005
1.740029e-005
1.734709e-005
1.729422e-005
1.724187e-005
1.719018e-005
1.713934e-005
1.708948e-005
1.704078e-005
1.699337e-005
1.694740e-005
1.690302e-005
1.686038e-005
1.681963e-005
1.678092e-005
1.674439e-005
1.671018e-005
1.667839e-005
1.664912e-005
1.662246e-005
1.659845e-005
1.657714e-005
1.655852e-005
1.654256e-005
1.652923e-005
1.651847e-005
1.651021e-005
1.650439e-005
1.650093e-005
1.649977e-005
1.650083e-005
1.650403e-005
1.650928e-005
1.651649e-005
1.652556e-005
1.653640e-005
1.654897e-005
1.656320e-005
1.657903e-005
1.659641e-005
1.661525e-005
1.663544e-005
1.665687e-005
1.667941e-005
1.670296e-005
1.672738e-005
1.675252e-005
1.677821e-005
1.680426e-005
1.683048e-005
1.685671e-005
1.688274e-005
1.690837e-005
1.693339e-005
1.695761e-005
1.698086e-005
1.700300e-005
1.702391e-005
1.704352e-005
1.706174e-005
1.707852e-005
1.709378e-005
1.710744e-005
1.711939e-005
1.712958e-005
1.713793e-005
1.714441e-005
1.714900e-005
1.715172e-005
1.715259e-005
1.715170e-005
1.714912e-005
1.714494e-005
1.713925e-005
1.713215e-005
1.712374e-005
1.711414e-005
1.710347e-005
1.709187e-005
1.707950e-005
1.706652e-005
1.705312e-005
1.703948e-005
1.702578e-005
1.701220e-005
1.699893e-005
1.698612e-005
1.697392e-005
1.696247e-005
1.695193e-005
1.694242e-005
1.693408e-005
1.692704e-005
1.692142e-005
1.691736e-005
1.691497e-005
1.691435e-005
1.691557e-005
1.691871e-005
1.692379e-005
1.693086e-005
1.693994e-005
1.695106e-005
1.696426e-005
1.697953e-005
1.699690e-005
1.701633e-005
1.703779e-005
1.706118e-005
1.708639e-005
1.711326e-005
1.714162e-005
1.717129e-005
1.720210e-005
1.723384e-005
1.726634e-005
1.729942e-005
1.733291e-005
1.736661e-005
1.740036e-005
1.743399e-005
1.746735e-005
1.750028e-005
1.753264e-005
1.756429e-005
1.759506e-005
1.762484e-005
1.765347e-005
1.768085e-005
1.770686e-005
1.773137e-005
1.775430e-005
1.777555e-005
1.779505e-005
1.781274e-005
1.782856e-005
1.784247e-005
1.785444e-005
1.786443e-005
1.787242e-005
1.787840e-005
1.788237e-005
1.788435e-005
1.788437e-005
1.788247e-005
1.787871e-005
1.787314e-005
1.786585e-005
1.785691e-005
1.784637e-005
1.783427e-005
1.782061e-005
1.780541e-005
1.778866e-005
1.777039e-005
1.775064e-005
1.772945e-005
1.770689e-005
1.768304e-005
1.765799e-005
1.763186e-005
1.760473e-005
1.757673e-005
1.754795e-005
1.751848e-005
1.748841e-005
1.745777e-005
1.742661e-005
1.739495e-005
1.736283e-005
1.733025e-005
1.729723e-005
1.726376e-005
1.722983e-005
1.719540e-005
1.716045e-005
1.712492e-005
1.708876e-005
1.705194e-005
1.701441e-005
1.697620e-005
1.693731e-005
1.689776e-005
1.685759e-005
1.681686e-005
1.677561e-005
1.673391e-005
1.669184e-005
1.664950e-005
1.660698e-005
1.656440e-005
1.652186e-005
1.647948e-005
1.643737e-005
1.639567e-005
1.635451e-005
1.631404e-005
1.627441e-005
1.623579e-005
1.619834e-005
1.616224e-005
1.612763e-005
1.609465e-005
1.606345e-005
1.603418e-005
1.600701e-005
1.598211e-005
1.595965e-005
1.593979e-005
1.592267e-005
1.590843e-005
1.589720e-005
1.588910e-005
1.588420e-005
1.588255e-005
1.588415e-005
1.588901e-005
1.589707e-005
1.590828e-005
1.592257e-005
1.593988e-005
1.596013e-005
1.598323e-005
1.600911e-005
1.603766e-005
1.606880e-005
1.610244e-005
1.613849e-005
1.617689e-005
1.621760e-005
1.626058e-005
1.630581e-005
1.635325e-005
1.640290e-005
1.645472e-005
1.650871e-005
1.656487e-005
1.662320e-005
1.668374e-005
1.674652e-005
1.681158e-005
1.687892e-005
1.694855e-005
1.702042e-005
1.709448e-005
1.717064e-005
1.724877e-005
1.732869e-005
1.741016e-005
1.749292e-005
1.757667e-005
1.766112e-005
1.774596e-005
1.783090e-005
1.791564e-005
1.799991e-005
1.808343e-005
1.816591e-005
1.824705e-005
1.832657e-005
1.840416e-005
1.847952e-005
1.855237e-005
1.862243e-005
1.868942e-005
1.875310e-005
1.881320e-005
1.886950e-005
1.892178e-005
1.896984e-005
1.901351e-005
1.905260e-005
1.908696e-005
1.911642e-005
1.914085e-005
1.916010e-005
1.917404e-005
1.918256e-005
1.918560e-005
1.918310e-005
1.917505e-005
1.916148e-005
1.914244e-005
1.911800e-005
1.908828e-005
1.905340e-005
1.901349e-005
1.896872e-005
1.891928e-005
1.886534e-005
1.880710e-005
1.874478e-005
1.867859e-005
1.860876e-005
1.853557e-005
1.845928e-005
1.838019e-005
1.829860e-005
1.821482e-005
1.812917e-005
1.804197e-005
1.795355e-005
1.786424e-005
1.777437e-005
1.768426e-005
1.759425e-005
1.750466e-005
1.741583e-005
1.732808e-005
1.724175e-005
1.715719e-005
1.707471e-005
1.699461e-005
1.691717e-005
1.684260e-005
1.677109e-005
1.670278e-005
1.663778e-005
1.657623e-005
1.651821e-005
1.646383e-005
1.641320e-005
1.636640e-005
1.632347e-005
1.628444e-005
1.624932e-005
1.621807e-005
1.619066e-005
1.616708e-005
1.614726e-005
1.613119e-005
1.611879e-005
1.611003e-005
1.610483e-005
1.610310e-005
1.610469e-005
1.610946e-005
1.611717e-005
1.612762e-005
1.614054e-005
1.615568e-005
1.617278e-005
1.619158e-005
1.621184e-005
1.623336e-005
1.625589e-005
1.627925e-005
1.630322e-005
1.632761e-005
1.635224e-005
1.637692e-005
1.640144e-005
1.642565e-005
1.644938e-005
1.647251e-005
1.649493e-005
1.651659e-005
1.653745e-005
1.655748e-005
1.657670e-005
1.659511e-005
1.661275e-005
1.662966e-005
1.664588e-005
1.666145e-005
1.667636e-005
1.669061e-005
1.670416e-005
1.671700e-005
1.672905e-005
1.674026e-005
1.675051e-005
1.675970e-005
1.676772e-005
1.677446e-005
1.677983e-005
1.678374e-005
1.678612e-005
1.678690e-005
1.678602e-005
1.678341e-005
1.677904e-005
1.677289e-005
1.676490e-005
1.675500e-005
1.674310e-005
1.672908e-005
1.671282e-005
1.669424e-005
1.667328e-005
1.664989e-005
1.662404e-005
1.659567e-005
1.656477e-005
1.653133e-005
1.649537e-005
1.645694e-005
1.641614e-005
1.637306e-005
1.632784e-005
1.628066e-005
1.623169e-005
1.618117e-005
1.612934e-005
1.607643e-005
1.602271e-005
1.596845e-005
1.591393e-005
1.585947e-005
1.580534e-005
1.575184e-005
1.569925e-005
1.564782e-005
1.559785e-005
1.554963e-005
1.550345e-005
1.545962e-005
1.541844e-005
1.538020e-005
1.534518e-005
1.531363e-005
1.528578e-005
1.526180e-005
1.524187e-005
1.522611e-005
1.521464e-005
1.520756e-005
1.520495e-005
1.520688e-005
1.521336e-005
1.522438e-005
1.523989e-005
1.525984e-005
1.528417e-005
1.531284e-005
1.534579e-005
1.538296e-005
1.542426e-005
1.546962e-005
1.551895e-005
1.557217e-005
1.562919e-005
1.568991e-005
1.575420e-005
1.582190e-005
1.589285e-005
1.596686e-005
1.604375e-005
1.612333e-005
1.620537e-005
1.628968e-005
1.637601e-005
1.646413e-005
1.655384e-005
1.664489e-005
1.673709e-005
1.683021e-005
1.692404e-005
1.701836e-005
1.711298e-005
1.720771e-005
1.730239e-005
1.739687e-005
1.749099e-005
1.758465e-005
1.767774e-005
1.777013e-005
1.786174e-005
1.795245e-005
1.804216e-005
1.813080e-005
1.821828e-005
1.830451e-005
1.838939e-005
1.847280e-005
1.855464e-005
1.863482e-005
1.871328e-005
1.879001e-005
1.886505e-005
1.893840e-005
1.901007e-005
1.908007e-005
1.914836e-005
1.921493e-005
1.927976e-005
1.934283e-005
1.940407e-005
1.946337e-005
1.952060e-005
1.957560e-005
1.962822e-005
1.967830e-005
1.972569e-005
1.977022e-005
1.981177e-005
1.985019e-005
1.988538e-005
1.991725e-005
1.994573e-005
1.997072e-005
1.999213e-005
2.000986e-005
2.002384e-005
2.003396e-005
2.004016e-005
2.004236e-005
2.004047e-005
2.003442e-005
2.002414e-005
2.000957e-005
1.999067e-005
1.996745e-005
1.993990e-005
1.990809e-005
1.987210e-005
1.983204e-005
1.978805e-005
1.974030e-005
1.968897e-005
1.963425e-005
1.957634e-005
1.951543e-005
1.945167e-005
1.938523e-005
1.931625e-005
1.924489e-005
1.917133e-005
1.909573e-005
1.901829e-005
1.893920e-005
1.885867e-005
1.877691e-005
1.869416e-005
1.861059e-005
1.852638e-005
1.844167e-005
1.835659e-005
1.827128e-005
1.818586e-005
1.810043e-005
1.801510e-005
1.792997e-005
1.784515e-005
1.776073e-005
1.767679e-005
1.759339e-005
1.751064e-005
1.742862e-005
1.734748e-005
1.726736e-005
1.718843e-005
1.711083e-005
1.703473e-005
1.696028e-005
1.688762e-005
1.681691e-005
1.674834e-005
1.668208e-005
1.661829e-005
1.655712e-005
1.649869e-005
1.644312e-005
1.639051e-005
1.634095e-005
1.629450e-005
1.625121e-005
1.621110e-005
1.617420e-005
1.614051e-005
1.611002e-005
1.608272e-005
1.605861e-005
1.603767e-005
1.601989e-005
1.600524e-005
1.599367e-005
1.598517e-005
1.597969e-005
1.597721e-005
1.597766e-005
1.598097e-005
1.598706e-005
1.599578e-005
1.600698e-005
1.602047e-005
1.603609e-005
1.605367e-005
1.607305e-005
1.609407e-005
1.611659e-005
1.614045e-005
1.616549e-005
1.619158e-005
1.621856e-005
1.624632e-005
1.627473e-005
1.630367e-005
1.633302e-005
1.636264e-005
1.639244e-005
1.642230e-005
1.645212e-005
1.648178e-005
1.651117e-005
1.654017e-005
1.656867e-005
1.659655e-005
1.662373e-005
1.665010e-005
1.667558e-005
1.670010e-005
1.672356e-005
1.674589e-005
1.676699e-005
1.678677e-005
1.680516e-005
1.682210e-005
1.683752e-005
1.685142e-005
1.686383e-005
1.687478e-005
1.688438e-005
1.689271e-005
1.689988e-005
1.690600e-005
1.691117e-005
1.691550e-005
1.691908e-005
1.692202e-005
1.692439e-005
1.692628e-005
1.692777e-005
1.692891e-005
1.692977e-005
1.693046e-005
1.693109e-005
1.693178e-005
1.693267e-005
1.693384e-005
1.693540e-005
1.693739e-005
1.693988e-005
1.694289e-005
1.694644e-005
1.695055e-005
1.695528e-005
1.696066e-005
1.696674e-005
1.697359e-005
1.698129e-005
1.698991e-005
1.699955e-005
1.701030e-005
1.702223e-005
1.703540e-005
1.704986e-005
1.706563e-005
1.708272e-005
1.710112e-005
1.712082e-005
1.714176e-005
1.716386e-005
1.718703e-005
1.721112e-005
1.723599e-005
1.726150e-005
1.728751e-005
1.731386e-005
1.734040e-005
1.736697e-005
1.739339e-005
1.741952e-005
1.744519e-005
1.747029e-005
1.749466e-005
1.751817e-005
1.754067e-005
1.756201e-005
1.758206e-005
1.760069e-005
1.761776e-005
1.763313e-005
1.764669e-005
1.765831e-005
1.766789e-005
1.767533e-005
1.768057e-005
1.768353e-005
1.768419e-005
1.768253e-005
1.767856e-005
1.767234e-005
1.766391e-005
1.765340e-005
1.764095e-005
1.762673e-005
1.761095e-005
1.759383e-005
1.757560e-005
1.755648e-005
1.753673e-005
1.751657e-005
1.749627e-005
1.747610e-005
1.745631e-005
1.743718e-005
1.741894e-005
1.740182e-005
1.738601e-005
1.737167e-005
1.735896e-005
1.734800e-005
1.733891e-005
1.733179e-005
1.732672e-005
1.732374e-005
1.732291e-005
1.732422e-005
1.732774e-005
1.733349e-005
1.734153e-005
1.735187e-005
1.736452e-005
1.737944e-005
1.739660e-005
1.741593e-005
1.743736e-005
1.746080e-005
1.748616e-005
1.751337e-005
1.754234e-005
1.757295e-005
1.760507e-005
1.763853e-005
1.767311e-005
1.770853e-005
1.774446e-005
1.778054e-005
1.781640e-005
1.785165e-005
1.788589e-005
1.791874e-005
1.794975e-005
1.797852e-005
1.800463e-005
1.802769e-005
1.804734e-005
1.806324e-005
1.807510e-005
1.808269e-005
1.808582e-005
1.808435e-005
1.807815e-005
1.806716e-005
1.805131e-005
1.803060e-005
1.800504e-005
1.797466e-005
1.793953e-005
1.789970e-005
1.785526e-005
1.780633e-005
1.775306e-005
1.769561e-005
1.763420e-005
1.756908e-005
1.750050e-005
1.742876e-005
1.735417e-005
1.727704e-005
1.719770e-005
1.711650e-005
1.703378e-005
1.694990e-005
1.686521e-005
1.678003e-005
1.669471e-005
1.660954e-005
1.652483e-005
1.644084e-005
1.635785e-005
1.627611e-005
1.619589e-005
1.611747e-005
1.604112e-005
1.596712e-005
1.589575e-005
1.582728e-005
1.576200e-005
1.570017e-005
1.564205e-005
1.558788e-005
1.553789e-005
1.549229e-005
1.545130e-005
1.541509e-005
1.538383e-005
1.535765e-005
1.533667e-005
1.532099e-005
1.531065e-005
1.530567e-005
1.530602e-005
1.531164e-005
1.532247e-005
1.533841e-005
1.535941e-005
1.538540e-005
1.541633e-005
1.545216e-005
1.549280e-005
1.553819e-005
1.558819e-005
1.564268e-005
1.570151e-005
1.576451e-005
1.583152e-005
1.590237e-005
1.597687e-005
1.605482e-005
1.613598e-005
1.622013e-005
1.630701e-005
1.639634e-005
1.648781e-005
1.658108e-005
1.667578e-005
1.677152e-005
1.686792e-005
1.696457e-005
1.706109e-005
1.715709e-005
1.725221e-005
1.734607e-005
1.743831e-005
1.752858e-005
1.761654e-005
1.770183e-005
1.778412e-005
1.786310e-005
1.793848e-005
1.800998e-005
1.807737e-005
1.814042e-005
1.819894e-005
1.825277e-005
1.830177e-005
1.834584e-005
1.838489e-005
1.841888e-005
1.844775e-005
1.847147e-005
1.849000e-005
1.850331e-005
1.851144e-005
1.851441e-005
1.851233e-005
1.850529e-005
1.849344e-005
1.847696e-005
1.845604e-005
1.843093e-005
1.840189e-005
1.836921e-005
1.833319e-005
1.829415e-005
1.825241e-005
1.820830e-005
1.816218e-005
1.811438e-005
1.806528e-005
1.801524e-005
1.796467e-005
1.791394e-005
1.786342e-005
1.781343e-005
1.776427e-005
1.771620e-005
1.766941e-005
1.762408e-005
1.758033e-005
1.753826e-005
1.749797e-005
1.745951e-005
1.742295e-005
1.738832e-005
1.735563e-005
1.732486e-005
1.729600e-005
1.726901e-005
1.724382e-005
1.722034e-005
1.719847e-005
1.717812e-005
1.715920e-005
1.714161e-005
1.712530e-005
1.711020e-005
1.709624e-005
1.708337e-005
1.707153e-005
1.706066e-005
1.705072e-005
1.704166e-005
1.703341e-005
1.702592e-005
1.701915e-005
1.701305e-005
1.700757e-005
1.700263e-005
1.699816e-005
1.699408e-005
1.699032e-005
1.698681e-005
1.698351e-005
1.698036e-005
1.697731e-005
1.697429e-005
1.697123e-005
1.696806e-005
1.696475e-005
1.696126e-005
1.695758e-005
1.695370e-005
1.694967e-005
1.694551e-005
1.694129e-005
1.693705e-005
1.693285e-005
1.692873e-005
1.692475e-005
1.692098e-005
1.691749e-005
1.691437e-005
1.691173e-005
1.690969e-005
1.690837e-005
1.690788e-005
1.690835e-005
1.690992e-005
1.691272e-005
1.691686e-005
1.692244e-005
1.692954e-005
1.693825e-005
1.694866e-005
1.696083e-005
1.697486e-005
1.699083e-005
1.700879e-005
1.702878e-005
1.705081e-005
1.707486e-005
1.710090e-005
1.712885e-005
1.715863e-005
1.719012e-005
1.722318e-005
1.725769e-005
1.729351e-005
1.733052e-005
1.736859e-005
1.740755e-005
1.744724e-005
1.748744e-005
1.752793e-005
1.756844e-005
1.760871e-005
1.764845e-005
1.768740e-005
1.772529e-005
1.776186e-005
1.779687e-005
1.783009e-005
1.786129e-005
1.789027e-005
1.791687e-005
1.794093e-005
1.796233e-005
1.798096e-005
1.799677e-005
1.800973e-005
1.801986e-005
1.802715e-005
1.803165e-005
1.803338e-005
1.803237e-005
1.802864e-005
1.802222e-005
1.801315e-005
1.800149e-005
1.798730e-005
1.797066e-005
1.795167e-005
1.793045e-005
1.790709e-005
1.788173e-005
1.785451e-005
1.782557e-005
1.779508e-005
1.776320e-005
1.773009e-005
1.769588e-005
1.766069e-005
1.762463e-005
1.758779e-005
1.755023e-005
1.751206e-005
1.747334e-005
1.743419e-005
1.739475e-005
1.735512e-005
1.731543e-005
1.727576e-005
1.723621e-005
1.719684e-005
1.715773e-005
1.711895e-005
1.708058e-005
1.704266e-005
1.700523e-005
1.696832e-005
1.693195e-005
1.689618e-005
1.686108e-005
1.682676e-005
1.679336e-005
1.676102e-005
1.672990e-005
1.670013e-005
1.667187e-005
1.664524e-005
1.662040e-005
1.659746e-005
1.657656e-005
1.655782e-005
1.654132e-005
1.652715e-005
1.651540e-005
1.650616e-005
1.649951e-005
1.649555e-005
1.649436e-005
1.649599e-005
1.650046e-005
1.650776e-005
1.651789e-005
1.653083e-005
1.654654e-005
1.656500e-005
1.658616e-005
1.661000e-005
1.663645e-005
1.666544e-005
1.669686e-005
1.673060e-005
1.676649e-005
1.680437e-005
1.684402e-005
1.688521e-005
1.692766e-005
1.697108e-005
1.701516e-005
1.705958e-005
1.710401e-005
1.714813e-005
1.719162e-005
1.723417e-005
1.727549e-005
1.731529e-005
1.735330e-005
1.738924e-005
1.742286e-005
1.745395e-005
1.748226e-005
1.750760e-005
1.752982e-005
1.754877e-005
1.756435e-005
1.757648e-005
1.758509e-005
1.759016e-005
1.759169e-005
1.758970e-005
1.758422e-005
1.757530e-005
1.756300e-005
1.754741e-005
1.752864e-005
1.750682e-005
1.748212e-005
1.745467e-005
1.742466e-005
1.739224e-005
1.735758e-005
1.732086e-005
1.728225e-005
1.724191e-005
1.720006e-005
1.715689e-005
1.711257e-005
1.706730e-005
1.702126e-005
1.697460e-005
1.692751e-005
1.688015e-005
1.683265e-005
1.678515e-005
1.673779e-005
1.669069e-005
1.664403e-005
1.659799e-005
1.655275e-005
1.650853e-005
1.646555e-005
1.642400e-005
1.638410e-005
1.634602e-005
1.630992e-005
1.627594e-005
1.624421e-005
1.621484e-005
1.618790e-005
1.616347e-005
1.614161e-005
1.612236e-005
1.610576e-005
1.609184e-005
1.608058e-005
1.607201e-005
1.606612e-005
1.606295e-005
1.606254e-005
1.606496e-005
1.607028e-005
1.607858e-005
1.608993e-005
1.610441e-005
1.612204e-005
1.614285e-005
1.616684e-005
1.619398e-005
1.622425e-005
1.625758e-005
1.629391e-005
1.633319e-005
1.637537e-005
1.642043e-005
1.646832e-005
1.651902e-005
1.657247e-005
1.662863e-005
1.668742e-005
1.674875e-005
1.681251e-005
1.687857e-005
1.694680e-005
1.701706e-005
1.708918e-005
1.716295e-005
1.723815e-005
1.731453e-005
1.739183e-005
1.746978e-005
1.754812e-005
1.762660e-005
1.770497e-005
1.778304e-005
1.786063e-005
1.793758e-005
1.801376e-005
1.808903e-005
1.816325e-005
1.823625e-005
1.830786e-005
1.837788e-005
1.844608e-005
1.851223e-005
1.857612e-005
1.863754e-005
1.869629e-005
1.875220e-005
1.880508e-005
1.885475e-005
1.890105e-005
1.894385e-005
1.898302e-005
1.901848e-005
1.905013e-005
1.907789e-005
1.910172e-005
1.912160e-005
1.913754e-005
1.914959e-005
1.915777e-005
1.916212e-005
1.916267e-005
1.915947e-005
1.915255e-005
1.914202e-005
1.912794e-005
1.911038e-005
1.908941e-005
1.906508e-005
1.903744e-005
1.900656e-005
1.897252e-005
1.893545e-005
1.889548e-005
1.885279e-005
1.880757e-005
1.876001e-005
1.871035e-005
1.865881e-005
1.860560e-005
1.855093e-005
1.849501e-005
1.843805e-005
1.838028e-005
1.832193e-005
1.826323e-005
1.820440e-005
1.814563e-005
1.808712e-005
1.802904e-005
1.797151e-005
1.791467e-005
1.785861e-005
1.780345e-005
1.774924e-005
1.769605e-005
1.764386e-005
1.759264e-005
1.754234e-005
1.749287e-005
1.744413e-005
1.739601e-005
1.734843e-005
1.730131e-005
1.725460e-005
1.720824e-005
1.716220e-005
1.711643e-005
1.707089e-005
1.702551e-005
1.698025e-005
1.693504e-005
1.688988e-005
1.684478e-005
1.679978e-005
1.675497e-005
1.671044e-005
1.666630e-005
1.662263e-005
1.657955e-005
1.653715e-005
1.649557e-005
1.645493e-005
1.641539e-005
1.637708e-005
1.634014e-005
1.630471e-005
1.627089e-005
1.623881e-005
1.620856e-005
1.618023e-005
1.615387e-005
1.612954e-005
1.610730e-005
1.608720e-005
1.606930e-005
1.605366e-005
1.604035e-005
1.602944e-005
1.602100e-005
1.601511e-005
1.601184e-005
1.601128e-005
1.601347e-005
1.601845e-005
1.602622e-005
1.603675e-005
1.604997e-005
1.606581e-005
1.608419e-005
1.610502e-005
1.612822e-005
1.615369e-005
1.618133e-005
1.621100e-005
1.624256e-005
1.627584e-005
1.631068e-005
1.634690e-005
1.638428e-005
1.642266e-005
1.646186e-005
1.650171e-005
1.654209e-005
1.658286e-005
1.662391e-005
1.666513e-005
1.670643e-005
1.674774e-005
1.678897e-005
1.683001e-005
1.687076e-005
1.691111e-005
1.695099e-005
1.699033e-005
1.702908e-005
1.706725e-005
1.710480e-005
1.714171e-005
1.717792e-005
1.721335e-005
1.724795e-005
1.728164e-005
1.731435e-005
1.734599e-005
1.737649e-005
1.740577e-005
1.743375e-005
1.746039e-005
1.748562e-005
1.750936e-005
1.753153e-005
1.755206e-005
1.757090e-005
1.758802e-005
1.760341e-005
1.761706e-005
1.762899e-005
1.763921e-005
1.764774e-005
1.765463e-005
1.765990e-005
1.766360e-005
1.766576e-005
1.766641e-005
1.766556e-005
1.766325e-005
1.765951e-005
1.765439e-005
1.764794e-005
1.764023e-005
1.763129e-005
1.762119e-005
1.760998e-005
1.759777e-005
1.758465e-005
1.757072e-005
1.755604e-005
1.754067e-005
1.752463e-005
1.750797e-005
1.749071e-005
1.747288e-005
1.745448e-005
1.743556e-005
1.741612e-005
1.739618e-005
1.737574e-005
1.735483e-005
1.733347e-005
1.731171e-005
1.728961e-005
1.726722e-005
1.724463e-005
1.722192e-005
1.719920e-005
1.717657e-005
1.715412e-005
1.713191e-005
1.710996e-005
1.708828e-005
1.706684e-005
1.704556e-005
1.702437e-005
1.700316e-005
1.698185e-005
1.696038e-005
1.693865e-005
1.691661e-005
1.689416e-005
1.687122e-005
1.684774e-005
1.682370e-005
1.679910e-005
1.677401e-005
1.674856e-005
1.672286e-005
1.669706e-005
1.667134e-005
1.664587e-005
1.662083e-005
1.659643e-005
1.657280e-005
1.655011e-005
1.652850e-005
1.650814e-005
1.648919e-005
1.647184e-005
1.645628e-005
1.644268e-005
1.643122e-005
1.642212e-005
1.641557e-005
1.641179e-005
1.641099e-005
1.641337e-005
1.641909e-005
1.642834e-005
1.644125e-005
1.645794e-005
1.647854e-005
1.650312e-005
1.653172e-005
1.656435e-005
1.660095e-005
1.664148e-005
1.668584e-005
1.673395e-005
1.678567e-005
1.684087e-005
1.689935e-005
1.696087e-005
1.702517e-005
1.709192e-005
1.716078e-005
1.723136e-005
1.730326e-005
1.737611e-005
1.744952e-005
1.752314e-005
1.759659e-005
1.766954e-005
1.774168e-005
1.781271e-005
1.788237e-005
1.795043e-005
1.801666e-005
1.808088e-005
1.814291e-005
1.820256e-005
1.825967e-005
1.831405e-005
1.836554e-005
1.841397e-005
1.845920e-005
1.850109e-005
1.853951e-005
1.857434e-005
1.860547e-005
1.863278e-005
1.865616e-005
1.867553e-005
1.869080e-005
1.870195e-005
1.870897e-005
1.871191e-005
1.871082e-005
1.870578e-005
1.869687e-005
1.868419e-005
1.866784e-005
1.864794e-005
1.862463e-005
1.859806e-005
1.856837e-005
1.853572e-005
1.850026e-005
1.846213e-005
1.842149e-005
1.837848e-005
1.833325e-005
1.828590e-005
1.823656e-005
1.818531e-005
1.813226e-005
1.807752e-005
1.802121e-005
1.796346e-005
1.790441e-005
1.784422e-005
1.778310e-005
1.772128e-005
1.765902e-005
1.759658e-005
1.753424e-005
1.747225e-005
1.741088e-005
1.735039e-005
1.729103e-005
1.723307e-005
1.717674e-005
1.712224e-005
1.706973e-005
1.701935e-005
1.697118e-005
1.692529e-005
1.688173e-005
1.684052e-005
1.680170e-005
1.676527e-005
1.673122e-005
1.669953e-005
1.667011e-005
1.664288e-005
1.661773e-005
1.659456e-005
1.657325e-005
1.655366e-005
1.653567e-005
1.651914e-005
1.650395e-005
1.649002e-005
1.647726e-005
1.646564e-005
1.645513e-005
1.644573e-005
1.643746e-005
1.643033e-005
1.642438e-005
1.641966e-005
1.641623e-005
1.641414e-005
1.641342e-005
1.641405e-005
1.641599e-005
1.641918e-005
1.642353e-005
1.642899e-005
1.643545e-005
1.644281e-005
1.645095e-005
1.645977e-005
1.646919e-005
1.647912e-005
1.648953e-005
1.650035e-005
1.651152e-005
1.652297e-005
1.653462e-005
1.654639e-005
1.655821e-005
1.656997e-005
1.658155e-005
1.659282e-005
1.660361e-005
1.661374e-005
1.662305e-005
1.663140e-005
1.663862e-005
1.664459e-005
1.664919e-005
1.665235e-005
1.665401e-005
1.665414e-005
1.665273e-005
1.664981e-005
1.664544e-005
1.663972e-005
1.663277e-005
1.662470e-005
1.661562e-005
1.660566e-005
1.659494e-005
1.658362e-005
1.657188e-005
1.655998e-005
1.654817e-005
1.653673e-005
1.652596e-005
1.651613e-005
1.650752e-005
1.650041e-005
1.649509e-005
1.649185e-005
1.649096e-005
1.649269e-005
1.649728e-005
1.650497e-005
1.651596e-005
1.653037e-005
1.654827e-005
1.656966e-005
1.659447e-005
1.662261e-005
1.665397e-005
1.668839e-005
1.672571e-005
1.676572e-005
1.680818e-005
1.685284e-005
1.689944e-005
1.694774e-005
1.699750e-005
1.704853e-005
1.710062e-005
1.715355e-005
1.720711e-005
1.726108e-005
1.731524e-005
1.736940e-005
1.742337e-005
1.747698e-005
1.753008e-005
1.758251e-005
1.763410e-005
1.768471e-005
1.773416e-005
1.778231e-005
1.782904e-005
1.787421e-005
1.791772e-005
1.795948e-005
1.799942e-005
1.803746e-005
1.807354e-005
1.810762e-005
1.813966e-005
1.816962e-005
1.819744e-005
1.822306e-005
1.824637e-005
1.826729e-005
1.828572e-005
1.830160e-005
1.831486e-005
1.832543e-005
1.833323e-005
1.833820e-005
1.834024e-005
1.833925e-005
1.833511e-005
1.832772e-005
1.831695e-005
1.830269e-005
1.828483e-005
1.826328e-005
1.823795e-005
1.820880e-005
1.817580e-005
1.813901e-005
1.809849e-005
1.805436e-005
1.800671e-005
1.795569e-005
1.790142e-005
1.784407e-005
1.778375e-005
1.772062e-005
1.765484e-005
1.758660e-005
1.751612e-005
1.744361e-005
1.736931e-005
1.729345e-005
1.721631e-005
1.713813e-005
1.705920e-005
1.697977e-005
1.690008e-005
1.682035e-005
1.674078e-005
1.666161e-005
1.658309e-005
1.650549e-005
1.642912e-005
1.635431e-005
1.628140e-005
1.621074e-005
1.614266e-005
1.607747e-005
1.601548e-005
1.595700e-005
1.590235e-005
1.585186e-005
1.580586e-005
1.576467e-005
1.572862e-005
1.569798e-005
1.567304e-005
1.565402e-005
1.564111e-005
1.563448e-005
1.563421e-005
1.564031e-005
1.565275e-005
1.567145e-005
1.569629e-005
1.572715e-005
1.576390e-005
1.580636e-005
1.585433e-005
1.590756e-005
1.596579e-005
1.602869e-005
1.609593e-005
1.616717e-005
1.624211e-005
1.632041e-005
1.640175e-005
1.648577e-005
1.657214e-005
1.666050e-005
1.675052e-005
1.684182e-005
1.693404e-005
1.702677e-005
1.711961e-005
1.721215e-005
1.730400e-005
1.739478e-005
1.748411e-005
1.757162e-005
1.765698e-005
1.773980e-005
1.781975e-005
1.789644e-005
1.796953e-005
1.803866e-005
1.810353e-005
1.816387e-005
1.821946e-005
1.827011e-005
1.831570e-005
1.835612e-005
1.839133e-005
1.842135e-005
1.844625e-005
1.846618e-005
1.848134e-005
1.849194e-005
1.849827e-005
1.850060e-005
1.849929e-005
1.849469e-005
1.848719e-005
1.847717e-005
1.846501e-005
1.845107e-005
1.843569e-005
1.841920e-005
1.840191e-005
1.838413e-005
1.836614e-005
1.834820e-005
1.833053e-005
1.831335e-005
1.829684e-005
1.828117e-005
1.826651e-005
1.825301e-005
1.824081e-005
1.823001e-005
1.822067e-005
1.821286e-005
1.820661e-005
1.820192e-005
1.819876e-005
1.819708e-005
1.819681e-005
1.819787e-005
1.820013e-005
1.820346e-005
1.820770e-005
1.821264e-005
1.821809e-005
1.822381e-005
1.822954e-005
1.823501e-005
1.823993e-005
1.824402e-005
1.824703e-005
1.824872e-005
1.824887e-005
1.824732e-005
1.824393e-005
1.823863e-005
1.823137e-005
1.822217e-005
1.821107e-005
1.819815e-005
1.818352e-005
1.816731e-005
1.814961e-005
1.813051e-005
1.811008e-005
1.808838e-005
1.806547e-005
1.804142e-005
1.801632e-005
1.799022e-005
1.796318e-005
1.793526e-005
1.790650e-005
1.787694e-005
1.784658e-005
1.781546e-005
1.778362e-005
1.775114e-005
1.771810e-005
1.768463e-005
1.765085e-005
1.761691e-005
1.758293e-005
1.754905e-005
1.751538e-005
1.748205e-005
1.744921e-005
1.741700e-005
1.738559e-005
1.735508e-005
1.732560e-005
1.729725e-005
1.727012e-005
1.724429e-005
1.721981e-005
1.719672e-005
1.717502e-005
1.715471e-005
1.713579e-005
1.711825e-005
1.710210e-005
1.708730e-005
1.707383e-005
1.706165e-005
1.705073e-005
1.704099e-005
1.703237e-005
1.702476e-005
1.701802e-005
1.701197e-005
1.700644e-005
1.700128e-005
1.699636e-005
1.699161e-005
1.698695e-005
1.698232e-005
1.697771e-005
1.697310e-005
1.696846e-005
1.696379e-005
1.695904e-005
1.695420e-005
1.694925e-005
1.694419e-005
1.693905e-005
1.693384e-005
1.692862e-005
1.692340e-005
1.691820e-005
1.691302e-005
1.690786e-005
1.690274e-005
1.689768e-005
1.689267e-005
1.688768e-005
1.688270e-005
1.687770e-005
1.687268e-005
1.686760e-005
1.686246e-005
1.685724e-005
1.685192e-005
1.684650e-005
1.684101e-005
1.683547e-005
1.682990e-005
1.682430e-005
1.681866e-005
1.681299e-005
1.680730e-005
1.680161e-005
1.679597e-005
1.679041e-005
1.678498e-005
1.677974e-005
1.677479e-005
1.677023e-005
1.676621e-005
1.676289e-005
1.676047e-005
1.675912e-005
1.675902e-005
1.676031e-005
1.676313e-005
1.676758e-005
1.677373e-005
1.678161e-005
1.679123e-005
1.680257e-005
1.681557e-005
1.683016e-005
1.684625e-005
1.686370e-005
1.688236e-005
1.690208e-005
1.692267e-005
1.694397e-005
1.696579e-005
1.698796e-005
1.701027e-005
1.703252e-005
1.705449e-005
1.707596e-005
1.709669e-005
1.711650e-005
1.713516e-005
1.715248e-005
1.716828e-005
1.718238e-005
1.719460e-005
1.720479e-005
1.721284e-005
1.721864e-005
1.722210e-005
1.722315e-005
1.722175e-005
1.721785e-005
1.721143e-005
1.720244e-005
1.719087e-005
1.717673e-005
1.716004e-005
1.714087e-005
1.711928e-005
1.709535e-005
1.706918e-005
1.704082e-005
1.701035e-005
1.697782e-005
1.694330e-005
1.690691e-005
1.686877e-005
1.682903e-005
1.678790e-005
1.674559e-005
1.670236e-005
1.665847e-005
1.661423e-005
1.656995e-005
1.652593e-005
1.648250e-005
1.644001e-005
1.639876e-005
1.635904e-005
1.632112e-005
1.628522e-005
1.625157e-005
1.622036e-005
1.619178e-005
1.616599e-005
1.614313e-005
1.612333e-005
1.610668e-005
1.609328e-005
1.608317e-005
1.607639e-005
1.607294e-005
1.607279e-005
1.607589e-005
1.608219e-005
1.609163e-005
1.610416e-005
1.611975e-005
1.613835e-005
1.615991e-005
1.618438e-005
1.621168e-005
1.624175e-005
1.627453e-005
1.630996e-005
1.634800e-005
1.638857e-005
1.643162e-005
1.647712e-005
1.652504e-005
1.657537e-005
1.662812e-005
1.668331e-005
1.674096e-005
1.680111e-005
1.686380e-005
1.692907e-005
1.699691e-005
1.706733e-005
1.714029e-005
1.721569e-005
1.729343e-005
1.737333e-005
1.745521e-005
1.753886e-005
1.762402e-005
1.771041e-005
1.779774e-005
1.788568e-005
1.797391e-005
1.806206e-005
1.814977e-005
1.823665e-005
1.832232e-005
1.840640e-005
1.848849e-005
1.856821e-005
1.864520e-005
1.871911e-005
1.878963e-005
1.885647e-005
1.891940e-005
1.897821e-005
1.903273e-005
1.908282e-005
1.912834e-005
1.916917e-005
1.920524e-005
1.923646e-005
1.926281e-005
1.928429e-005
1.930093e-005
1.931281e-005
1.932001e-005
1.932266e-005
1.932089e-005
1.931482e-005
1.930460e-005
1.929035e-005
1.927220e-005
1.925025e-005
1.922461e-005
1.919536e-005
1.916254e-005
1.912619e-005
1.908632e-005
1.904293e-005
1.899601e-005
1.894553e-005
1.889145e-005
1.883369e-005
1.877215e-005
1.870672e-005
1.863728e-005
1.856377e-005
1.848616e-005
1.840451e-005
1.831893e-005
1.822962e-005
1.813683e-005
1.804087e-005
1.794211e-005
1.784095e-005
1.773783e-005
1.763327e-005
1.752782e-005
1.742201e-005
1.731626e-005
1.721087e-005
1.710608e-005
1.700213e-005
1.689935e-005
1.679813e-005
1.669894e-005
1.660230e-005
1.650876e-005
1.641886e-005
1.633314e-005
1.625214e-005
1.617632e-005
1.610611e-005
1.604185e-005
1.598381e-005
1.593217e-005
1.588706e-005
1.584853e-005
1.581656e-005
1.579104e-005
1.577185e-005
1.575878e-005
1.575162e-005
1.575009e-005
1.575390e-005
1.576270e-005
1.577615e-005
1.579384e-005
1.581536e-005
1.584029e-005
1.586821e-005
1.589873e-005
1.593147e-005
1.596607e-005
1.600223e-005
1.603961e-005
1.607795e-005
1.611698e-005
1.615645e-005
1.619614e-005
1.623582e-005
1.627526e-005
1.631425e-005
1.635261e-005
1.639017e-005
1.642676e-005
1.646227e-005
1.649656e-005
1.652955e-005
1.656115e-005
1.659131e-005
1.662004e-005
1.664733e-005
1.667323e-005
1.669777e-005
1.672103e-005
1.674308e-005
1.676400e-005
1.678389e-005
1.680285e-005
1.682099e-005
1.683840e-005
1.685519e-005
1.687140e-005
1.688710e-005
1.690233e-005
1.691716e-005
1.693162e-005
1.694574e-005
1.695958e-005
1.697312e-005
1.698638e-005
1.699932e-005
1.701192e-005
1.702414e-005
1.703596e-005
1.704737e-005
1.705836e-005
1.706896e-005
1.707917e-005
1.708903e-005
1.709852e-005
1.710762e-005
1.711627e-005
1.712441e-005
1.713197e-005
1.713887e-005
1.714504e-005
1.715044e-005
1.715504e-005
1.715883e-005
1.716181e-005
1.716398e-005
1.716536e-005
1.716599e-005
1.716592e-005
1.716520e-005
1.716389e-005
1.716205e-005
1.715972e-005
1.715693e-005
1.715370e-005
1.715005e-005
1.714602e-005
1.714165e-005
1.713699e-005
1.713211e-005
1.712704e-005
1.712182e-005
1.711647e-005
1.711097e-005
1.710532e-005
1.709952e-005
1.709357e-005
1.708751e-005
1.708138e-005
1.707526e-005
1.706925e-005
1.706347e-005
1.705803e-005
1.705305e-005
1.704865e-005
1.704497e-005
1.704212e-005
1.704019e-005
1.703926e-005
1.703938e-005
1.704062e-005
1.704300e-005
1.704659e-005
1.705140e-005
1.705747e-005
1.706481e-005
1.707341e-005
1.708323e-005
1.709425e-005
1.710642e-005
1.711969e-005
1.713400e-005
1.714925e-005
1.716534e-005
1.718214e-005
1.719956e-005
1.721748e-005
1.723582e-005
1.725446e-005
1.727328e-005
1.729212e-005
1.731086e-005
1.732939e-005
1.734763e-005
1.736553e-005
1.738307e-005
1.740024e-005
1.741702e-005
1.743339e-005
1.744935e-005
1.746485e-005
1.747987e-005
1.749438e-005
1.750835e-005
1.752181e-005
1.753477e-005
1.754728e-005
1.755937e-005
1.757111e-005
1.758253e-005
1.759368e-005
1.760459e-005
1.761529e-005
1.762577e-005
1.763603e-005
1.764604e-005
1.765574e-005
1.766504e-005
1.767384e-005
1.768201e-005
1.768945e-005
1.769604e-005
1.770166e-005
1.770626e-005
1.770975e-005
1.771211e-005
1.771329e-005
1.771327e-005
1.771203e-005
1.770960e-005
1.770600e-005
1.770130e-005
1.769559e-005
1.768896e-005
1.768152e-005
1.767335e-005
1.766455e-005
1.765526e-005
1.764561e-005
1.763574e-005
1.762579e-005
1.761589e-005
1.760616e-005
1.759672e-005
1.758773e-005
1.757932e-005
1.757161e-005
1.756473e-005
1.755876e-005
1.755377e-005
1.754981e-005
1.754690e-005
1.754507e-005
1.754432e-005
1.754468e-005
1.754618e-005
1.754880e-005
1.755257e-005
1.755748e-005
1.756352e-005
1.757069e-005
1.757893e-005
1.758816e-005
1.759826e-005
1.760910e-005
1.762052e-005
1.763238e-005
1.764456e-005
1.765690e-005
1.766927e-005
1.768151e-005
1.769346e-005
1.770495e-005
1.771581e-005
1.772588e-005
1.773503e-005
1.774312e-005
1.775003e-005
1.775565e-005
1.775986e-005
1.776256e-005
1.776370e-005
1.776325e-005
1.776118e-005
1.775752e-005
1.775230e-005
1.774554e-005
1.773729e-005
1.772758e-005
1.771645e-005
1.770392e-005
1.769001e-005
1.767471e-005
1.765800e-005
1.763989e-005
1.762037e-005
1.759945e-005
1.757714e-005
1.755347e-005
1.752843e-005
1.750202e-005
1.747427e-005
1.744516e-005
1.741470e-005
1.738287e-005
1.734967e-005
1.731508e-005
1.727908e-005
1.724163e-005
1.720269e-005
1.716223e-005
1.712022e-005
1.707665e-005
1.703156e-005
1.698500e-005
1.693707e-005
1.688791e-005
1.683769e-005
1.678660e-005
1.673485e-005
1.668267e-005
1.663028e-005
1.657790e-005
1.652575e-005
1.647403e-005
1.642296e-005
1.637277e-005
1.632367e-005
1.627588e-005
1.622961e-005
1.618504e-005
1.614236e-005
1.610175e-005
1.606337e-005
1.602742e-005
1.599406e-005
1.596348e-005
1.593585e-005
1.591131e-005
1.588998e-005
1.587194e-005
1.585726e-005
1.584594e-005
1.583795e-005
1.583322e-005
1.583166e-005
1.583317e-005
1.583761e-005
1.584487e-005
1.585478e-005
1.586720e-005
1.588199e-005
1.589902e-005
1.591819e-005
1.593944e-005
1.596274e-005
1.598810e-005
1.601552e-005
1.604501e-005
1.607661e-005
1.611032e-005
1.614613e-005
1.618403e-005
1.622399e-005
1.626600e-005
1.631005e-005
1.635613e-005
1.640420e-005
1.645420e-005
1.650602e-005
1.655954e-005
1.661461e-005
1.667108e-005
1.672880e-005
1.678763e-005
1.684740e-005
1.690793e-005
1.696900e-005
1.703038e-005
1.709180e-005
1.715300e-005
1.721368e-005
1.727356e-005
1.733239e-005
1.738991e-005
1.744590e-005
1.750014e-005
1.755239e-005
1.760246e-005
1.765016e-005
1.769535e-005
1.773791e-005
1.777774e-005
1.781479e-005
1.784899e-005
1.788033e-005
1.790879e-005
1.793439e-005
1.795716e-005
1.797714e-005
1.799433e-005
1.800877e-005
1.802044e-005
1.802938e-005
1.803561e-005
1.803921e-005
1.804027e-005
1.803886e-005
1.803511e-005
1.802912e-005
1.802100e-005
1.801085e-005
1.799879e-005
1.798492e-005
1.796938e-005
1.795229e-005
1.793385e-005
1.791423e-005
1.789363e-005
1.787226e-005
1.785030e-005
1.782790e-005
1.780520e-005
1.778226e-005
1.775912e-005
1.773576e-005
1.771215e-005
1.768826e-005
1.766401e-005
1.763934e-005
1.761419e-005
1.758850e-005
1.756225e-005
1.753544e-005
1.750813e-005
1.748038e-005
1.745229e-005
1.742400e-005
1.739563e-005
1.736735e-005
1.733931e-005
1.731169e-005
1.728459e-005
1.725814e-005
1.723243e-005
1.720753e-005
1.718353e-005
1.716051e-005
1.713852e-005
1.711762e-005
1.709790e-005
1.707943e-005
1.706232e-005
1.704663e-005
1.703244e-005
1.701981e-005
1.700880e-005
1.699945e-005
1.699179e-005
1.698581e-005
1.698150e-005
1.697878e-005
1.697759e-005
1.697783e-005
1.697944e-005
1.698236e-005
1.698658e-005
1.699207e-005
1.699883e-005
1.700687e-005
1.701621e-005
1.702688e-005
1.703891e-005
1.705236e-005
1.706722e-005
1.708348e-005
1.710112e-005
1.712011e-005
1.714042e-005
1.716202e-005
1.718488e-005
1.720899e-005
1.723430e-005
1.726079e-005
1.728840e-005
1.731704e-005
1.734663e-005
1.737702e-005
1.740809e-005
1.743966e-005
1.747154e-005
1.750356e-005
1.753554e-005
1.756733e-005
1.759876e-005
1.762970e-005
1.765999e-005
1.768952e-005
1.771818e-005
1.774588e-005
1.777252e-005
1.779805e-005
1.782243e-005
1.784565e-005
1.786769e-005
1.788854e-005
1.790816e-005
1.792652e-005
1.794360e-005
1.795940e-005
1.797392e-005
1.798716e-005
1.799910e-005
1.800973e-005
1.801902e-005
1.802694e-005
1.803347e-005
1.803860e-005
1.804228e-005
1.804448e-005
1.804513e-005
1.804417e-005
1.804151e-005
1.803709e-005
1.803085e-005
1.802274e-005
1.801271e-005
1.800070e-005
1.798665e-005
1.797050e-005
1.795220e-005
1.793171e-005
1.790898e-005
1.788402e-005
1.785684e-005
1.782748e-005
1.779603e-005
1.776258e-005
1.772727e-005
1.769020e-005
1.765153e-005
1.761140e-005
1.756994e-005
1.752732e-005
1.748369e-005
1.743920e-005
1.739401e-005
1.734824e-005
1.730202e-005
1.725546e-005
1.720869e-005
1.716179e-005
1.711484e-005
1.706788e-005
1.702092e-005
1.697400e-005
1.692713e-005
1.688033e-005
1.683361e-005
1.678698e-005
1.674045e-005
1.669408e-005
1.664791e-005
1.660203e-005
1.655651e-005
1.651145e-005
1.646696e-005
1.642318e-005
1.638026e-005
1.633838e-005
1.629771e-005
1.625843e-005
1.622069e-005
1.618466e-005
1.615050e-005
1.611842e-005
1.608858e-005
1.606117e-005
1.603635e-005
1.601425e-005
1.599502e-005
1.597881e-005
1.596579e-005
1.595608e-005
1.594984e-005
1.594719e-005
1.594828e-005
1.595327e-005
1.596229e-005
1.597550e-005
1.599302e-005
1.601493e-005
1.604129e-005
1.607211e-005
1.610734e-005
1.614697e-005
1.619092e-005
1.623914e-005
1.629153e-005
1.634797e-005
1.640833e-005
1.647245e-005
1.654017e-005
1.661129e-005
1.668560e-005
1.676281e-005
1.684261e-005
1.692467e-005
1.700862e-005
1.709408e-005
1.718068e-005
1.726802e-005
1.735573e-005
1.744345e-005
1.753083e-005
1.761753e-005
1.770322e-005
1.778755e-005
1.787017e-005
1.795071e-005
1.802882e-005
1.810416e-005
1.817641e-005
1.824527e-005
1.831045e-005
1.837167e-005
1.842867e-005
1.848122e-005
1.852910e-005
1.857209e-005
1.861002e-005
1.864278e-005
1.867024e-005
1.869235e-005
1.870903e-005
1.872023e-005
1.872593e-005
1.872609e-005
1.872075e-005
1.870993e-005
1.869369e-005
1.867214e-005
1.864537e-005
1.861353e-005
1.857681e-005
1.853544e-005
1.848972e-005
1.843994e-005
1.838648e-005
1.832970e-005
1.827000e-005
1.820779e-005
1.814349e-005
1.807750e-005
1.801026e-005
1.794213e-005
1.787350e-005
1.780468e-005
1.773595e-005
1.766758e-005
1.759980e-005
1.753282e-005
1.746682e-005
1.740195e-005
1.733835e-005
1.727612e-005
1.721535e-005
1.715609e-005
1.709835e-005
1.704217e-005
1.698753e-005
1.693443e-005
1.688285e-005
1.683276e-005
1.678415e-005
1.673700e-005
1.669132e-005
1.664710e-005
1.660436e-005
1.656310e-005
1.652330e-005
1.648494e-005
1.644796e-005
1.641231e-005
1.637794e-005
1.634482e-005
1.631293e-005
1.628226e-005
1.625281e-005
1.622455e-005
1.619747e-005
1.617154e-005
1.614671e-005
1.612292e-005
1.610009e-005
1.607816e-005
1.605710e-005
1.603689e-005
1.601758e-005
1.599923e-005
1.598192e-005
1.596576e-005
1.595083e-005
1.593721e-005
1.592498e-005
1.591419e-005
1.590491e-005
1.589719e-005
1.589106e-005
1.588658e-005
1.588376e-005
1.588264e-005
1.588323e-005
1.588554e-005
1.588959e-005
1.589541e-005
1.590304e-005
1.591253e-005
1.592393e-005
1.593729e-005
1.595263e-005
1.596998e-005
1.598934e-005
1.601069e-005
1.603399e-005
1.605917e-005
1.608617e-005
1.611489e-005
1.614521e-005
1.617700e-005
1.621012e-005
1.624442e-005
1.627974e-005
1.631593e-005
1.635285e-005
1.639035e-005
1.642828e-005
1.646648e-005
1.650481e-005
1.654316e-005
1.658139e-005
1.661945e-005
1.665726e-005
1.669480e-005
1.673210e-005
1.676919e-005
1.680613e-005
1.684298e-005
1.687981e-005
1.691670e-005
1.695369e-005
1.699087e-005
1.702829e-005
1.706601e-005
1.710410e-005
1.714262e-005
1.718163e-005
1.722119e-005
1.726137e-005
1.730226e-005
1.734392e-005
1.738645e-005
1.742991e-005
1.747436e-005
1.751983e-005
1.756631e-005
1.761378e-005
1.766219e-005
1.771146e-005
1.776151e-005
1.781226e-005
1.786360e-005
1.791545e-005
1.796772e-005
1.802032e-005
1.807313e-005
1.812607e-005
1.817902e-005
1.823187e-005
1.828450e-005
1.833674e-005
1.838845e-005
1.843948e-005
1.848966e-005
1.853886e-005
1.858695e-005
1.863378e-005
1.867921e-005
1.872310e-005
1.876529e-005
1.880561e-005
1.884387e-005
1.887987e-005
1.891339e-005
1.894419e-005
1.897203e-005
1.899667e-005
1.901787e-005
1.903539e-005
1.904897e-005
1.905841e-005
1.906351e-005
1.906413e-005
1.906015e-005
1.905146e-005
1.903801e-005
1.901976e-005
1.899668e-005
1.896880e-005
1.893613e-005
1.889876e-005
1.885675e-005
1.881021e-005
1.875924e-005
1.870397e-005
1.864458e-005
1.858125e-005
1.851421e-005
1.844367e-005
1.836983e-005
1.829292e-005
1.821316e-005
1.813080e-005
1.804614e-005
1.795946e-005
1.787108e-005
1.778129e-005
1.769043e-005
1.759885e-005
1.750690e-005
1.741494e-005
1.732333e-005
1.723238e-005
1.714240e-005
1.705367e-005
1.696645e-005
1.688104e-005
1.679770e-005
1.671669e-005
1.663826e-005
1.656267e-005
1.649017e-005
1.642100e-005
1.635543e-005
1.629373e-005
1.623614e-005
1.618294e-005
1.613436e-005
1.609061e-005
1.605187e-005
1.601828e-005
1.598997e-005
1.596703e-005
1.594954e-005
1.593759e-005
1.593120e-005
1.593041e-005
1.593520e-005
1.594549e-005
1.596119e-005
1.598219e-005
1.600835e-005
1.603953e-005
1.607553e-005
1.611614e-005
1.616111e-005
1.621017e-005
1.626306e-005
1.631953e-005
1.637932e-005
1.644214e-005
1.650771e-005
1.657572e-005
1.664583e-005
1.671771e-005
1.679101e-005
1.686535e-005
1.694038e-005
1.701578e-005
1.709122e-005
1.716641e-005
1.724107e-005
1.731492e-005
1.738767e-005
1.745906e-005
1.752881e-005
1.759668e-005
1.766244e-005
1.772589e-005
1.778685e-005
1.784515e-005
1.790065e-005
1.795321e-005
1.800274e-005
1.804917e-005
1.809244e-005
1.813249e-005
1.816926e-005
1.820269e-005
1.823270e-005
1.825921e-005
1.828213e-005
1.830135e-005
1.831677e-005
1.832826e-005
1.833572e-005
1.833903e-005
1.833811e-005
1.833291e-005
1.832337e-005
1.830944e-005
1.829111e-005
1.826837e-005
1.824125e-005
1.820982e-005
1.817414e-005
1.813429e-005
1.809038e-005
1.804252e-005
1.799086e-005
1.793555e-005
1.787675e-005
1.781460e-005
1.774928e-005
1.768095e-005
1.760982e-005
1.753610e-005
1.746005e-005
1.738195e-005
1.730214e-005
1.722094e-005
1.713871e-005
1.705579e-005
1.697253e-005
1.688926e-005
1.680628e-005
1.672391e-005
1.664246e-005
1.656224e-005
1.648356e-005
1.640673e-005
1.633203e-005
1.625976e-005
1.619019e-005
1.612358e-005
1.606018e-005
1.600024e-005
1.594400e-005
1.589169e-005
1.584351e-005
1.579968e-005
1.576036e-005
1.572572e-005
1.569591e-005
1.567100e-005
1.565105e-005
1.563607e-005
1.562606e-005
1.562099e-005
1.562083e-005
1.562553e-005
1.563503e-005
1.564926e-005
1.566809e-005
1.569140e-005
1.571909e-005
1.575100e-005
1.578697e-005
1.582678e-005
1.587018e-005
1.591689e-005
1.596665e-005
1.601913e-005
1.607403e-005
1.613103e-005
1.618978e-005
1.624997e-005
1.631129e-005
1.637344e-005
1.643612e-005
1.649904e-005
1.656191e-005
1.662448e-005
1.668650e-005
1.674779e-005
1.680815e-005
1.686748e-005
1.692568e-005
1.698268e-005
1.703841e-005
1.709280e-005
1.714585e-005
1.719753e-005
1.724788e-005
1.729694e-005
1.734477e-005
1.739145e-005
1.743705e-005
1.748168e-005
1.752545e-005
1.756846e-005
1.761079e-005
1.765252e-005
1.769371e-005
1.773441e-005
1.777465e-005
1.781447e-005
1.785390e-005
1.789297e-005
1.793171e-005
1.797015e-005
1.800831e-005
1.804620e-005
1.808383e-005
1.812119e-005
1.815822e-005
1.819486e-005
1.823103e-005
1.826664e-005
1.830157e-005
1.833570e-005
1.836891e-005
1.840108e-005
1.843211e-005
1.846192e-005
1.849043e-005
1.851753e-005
1.854313e-005
1.856710e-005
1.858936e-005
1.860979e-005
1.862831e-005
1.864480e-005
1.865914e-005
1.867121e-005
1.868087e-005
1.868799e-005
1.869247e-005
1.869424e-005
1.869325e-005
1.868946e-005
1.868286e-005
1.867345e-005
1.866124e-005
1.864624e-005
1.862850e-005
1.860802e-005
1.858483e-005
1.855895e-005
1.853038e-005
1.849914e-005
1.846524e-005
1.842872e-005
1.838961e-005
1.834795e-005
1.830381e-005
1.825723e-005
1.820829e-005
1.815706e-005
1.810358e-005
1.804789e-005
1.799004e-005
1.793007e-005
1.786804e-005
1.780405e-005
1.773820e-005
1.767063e-005
1.760149e-005
1.753093e-005
1.745917e-005
1.738639e-005
1.731283e-005
1.723866e-005
1.716408e-005
1.708926e-005
1.701438e-005
1.693961e-005
1.686514e-005
1.679119e-005
1.671796e-005
1.664566e-005
1.657449e-005
1.650463e-005
1.643626e-005
1.636956e-005
1.630472e-005
1.624189e-005
1.618125e-005
1.612294e-005
1.606711e-005
1.601389e-005
1.596340e-005
1.591571e-005
1.587091e-005
1.582908e-005
1.579031e-005
1.575472e-005
1.572245e-005
1.569363e-005
1.566841e-005
1.564693e-005
1.562933e-005
1.561573e-005
1.560624e-005
1.560094e-005
1.559989e-005
1.560311e-005
1.561058e-005
1.562226e-005
1.563804e-005
1.565783e-005
1.568148e-005
1.570882e-005
1.573967e-005
1.577383e-005
1.581106e-005
1.585117e-005
1.589394e-005
1.593920e-005
1.598673e-005
1.603636e-005
1.608786e-005
1.614102e-005
1.619561e-005
1.625141e-005
1.630821e-005
1.636579e-005
1.642397e-005
1.648258e-005
1.654146e-005
1.660044e-005
1.665935e-005
1.671804e-005
1.677633e-005
1.683408e-005
1.689112e-005
1.694728e-005
1.700237e-005
1.705623e-005
1.710866e-005
1.715947e-005
1.720846e-005
1.725543e-005
1.730015e-005
1.734239e-005
1.738197e-005
1.741870e-005
1.745245e-005
1.748313e-005
1.751070e-005
1.753513e-005
1.755643e-005
1.757465e-005
1.758984e-005
1.760209e-005
1.761148e-005
1.761810e-005
1.762203e-005
1.762335e-005
1.762213e-005
1.761847e-005
1.761247e-005
1.760421e-005
1.759379e-005
1.758132e-005
1.756690e-005
1.755069e-005
1.753282e-005
1.751345e-005
1.749272e-005
1.747073e-005
1.744761e-005
1.742350e-005
1.739854e-005
1.737288e-005
1.734669e-005
1.732012e-005
1.729334e-005
1.726648e-005
1.723973e-005
1.721328e-005
1.718734e-005
1.716216e-005
1.713799e-005
1.711509e-005
1.709372e-005
1.707414e-005
1.705662e-005
1.704142e-005
1.702879e-005
1.701895e-005
1.701211e-005
1.700843e-005
1.700806e-005
1.701109e-005
1.701756e-005
1.702746e-005
1.704070e-005
1.705713e-005
1.707656e-005
1.709881e-005
1.712365e-005
1.715082e-005
1.718008e-005
1.721113e-005
1.724367e-005
1.727740e-005
1.731200e-005
1.734712e-005
1.738238e-005
1.741744e-005
1.745194e-005
1.748552e-005
1.751785e-005
1.754855e-005
1.757725e-005
1.760357e-005
1.762713e-005
1.764757e-005
1.766457e-005
1.767781e-005
1.768704e-005
1.769203e-005
1.769260e-005
1.768862e-005
1.767998e-005
1.766663e-005
1.764854e-005
1.762573e-005
1.759824e-005
1.756617e-005
1.752965e-005
1.748888e-005
1.744406e-005
1.739543e-005
1.734323e-005
1.728772e-005
1.722917e-005
1.716790e-005
1.710423e-005
1.703850e-005
1.697107e-005
1.690232e-005
1.683265e-005
1.676247e-005
1.669224e-005
1.662243e-005
1.655352e-005
1.648598e-005
1.642024e-005
1.635674e-005
1.629588e-005
1.623806e-005
1.618363e-005
1.613288e-005
1.608610e-005
1.604354e-005
1.600545e-005
1.597205e-005
1.594351e-005
1.591998e-005
1.590151e-005
1.588813e-005
1.587985e-005
1.587664e-005
1.587843e-005
1.588515e-005
1.589669e-005
1.591290e-005
1.593360e-005
1.595861e-005
1.598771e-005
1.602068e-005
1.605731e-005
1.609732e-005
1.614043e-005
1.618633e-005
1.623470e-005
1.628523e-005
1.633763e-005
1.639163e-005
1.644699e-005
1.650347e-005
1.656087e-005
1.661903e-005
1.667780e-005
1.673711e-005
1.679692e-005
1.685725e-005
1.691816e-005
1.697976e-005
1.704220e-005
1.710566e-005
1.717031e-005
1.723631e-005
1.730381e-005
1.737293e-005
1.744379e-005
1.751649e-005
1.759111e-005
1.766768e-005
1.774624e-005
1.782678e-005
1.790929e-005
1.799377e-005
1.808017e-005
1.816846e-005
1.825855e-005
1.835032e-005
1.844363e-005
1.853829e-005
1.863407e-005
1.873070e-005
1.882783e-005
1.892506e-005
1.902197e-005
1.911811e-005
1.921298e-005
1.930606e-005
1.939682e-005
1.948472e-005
1.956921e-005
1.964976e-005
1.972586e-005
1.979705e-005
1.986287e-005
1.992291e-005
1.997678e-005
2.002412e-005
2.006459e-005
2.009792e-005
2.012391e-005
2.014242e-005
2.015335e-005
2.015666e-005
2.015236e-005
2.014049e-005
2.012114e-005
2.009442e-005
2.006049e-005
2.001953e-005
1.997173e-005
1.991729e-005
1.985641e-005
1.978934e-005
1.971640e-005
1.963793e-005
1.955436e-005
1.946613e-005
1.937372e-005
1.927759e-005
1.917821e-005
1.907603e-005
1.897148e-005
1.886495e-005
1.875684e-005
1.864748e-005
1.853722e-005
1.842635e-005
1.831517e-005
1.820393e-005
1.809287e-005
1.798217e-005
1.787201e-005
1.776252e-005
1.765382e-005
1.754601e-005
1.743918e-005
1.733345e-005
1.722891e-005
1.712567e-005
1.702385e-005
1.692352e-005
1.682477e-005
1.672766e-005
1.663226e-005
1.653866e-005
1.644698e-005
1.635734e-005
1.626988e-005
1.618476e-005
1.610212e-005
1.602211e-005
1.594488e-005
1.587056e-005
1.579930e-005
1.573125e-005
1.566653e-005
1.560524e-005
1.554745e-005
1.549321e-005
1.544255e-005
1.539551e-005
1.535216e-005
1.531259e-005
1.527690e-005
1.524516e-005
1.521743e-005
1.519377e-005
1.517420e-005
1.515876e-005
1.514746e-005
1.514030e-005
1.513726e-005
1.513831e-005
1.514341e-005
1.515251e-005
1.516558e-005
1.518259e-005
1.520350e-005
1.522829e-005
1.525688e-005
1.528919e-005
1.532510e-005
1.536446e-005
1.540711e-005
1.545282e-005
1.550133e-005
1.555237e-005
1.560564e-005
1.566083e-005
1.571763e-005
1.577571e-005
1.583471e-005
1.589424e-005
1.595387e-005
1.601319e-005
1.607176e-005
1.612917e-005
1.618506e-005
1.623904e-005
1.629081e-005
1.634010e-005
1.638669e-005
1.643043e-005
1.647120e-005
1.650891e-005
1.654348e-005
1.657488e-005
1.660309e-005
1.662815e-005
1.665009e-005
1.666900e-005
1.668499e-005
1.669820e-005
1.670881e-005
1.671699e-005
1.672296e-005
1.672692e-005
1.672910e-005
1.672973e-005
1.672904e-005
1.672726e-005
1.672461e-005
1.672128e-005
1.671746e-005
1.671331e-005
1.670898e-005
1.670459e-005
1.670029e-005
1.669617e-005
1.669233e-005
1.668881e-005
1.668561e-005
1.668276e-005
1.668028e-005
1.667821e-005
1.667663e-005
1.667562e-005
1.667526e-005
1.667562e-005
1.667675e-005
1.667869e-005
1.668148e-005
1.668517e-005
1.668980e-005
1.669545e-005
1.670223e-005
1.671030e-005
1.671981e-005
1.673097e-005
1.674396e-005
1.675900e-005
1.677632e-005
1.679620e-005
1.681890e-005
1.684472e-005
1.687391e-005
1.690670e-005
1.694325e-005
1.698370e-005
1.702811e-005
1.707647e-005
1.712867e-005
1.718451e-005
1.724367e-005
1.730577e-005
1.737035e-005
1.743692e-005
1.750494e-005
1.757383e-005
1.764299e-005
1.771178e-005
1.777955e-005
1.784568e-005
1.790955e-005
1.797057e-005
1.802817e-005
1.808187e-005
1.813121e-005
1.817583e-005
1.821540e-005
1.824968e-005
1.827849e-005
1.830174e-005
1.831941e-005
1.833155e-005
1.833834e-005
1.833997e-005
1.833676e-005
1.832904e-005
1.831727e-005
1.830191e-005
1.828349e-005
1.826255e-005
1.823959e-005
1.821507e-005
1.818937e-005
1.816283e-005
1.813567e-005
1.810808e-005
1.808018e-005
1.805205e-005
1.802370e-005
1.799510e-005
1.796618e-005
1.793683e-005
1.790689e-005
1.787619e-005
1.784453e-005
1.781167e-005
1.777735e-005
1.774132e-005
1.770333e-005
1.766317e-005
1.762064e-005
1.757553e-005
1.752766e-005
1.747686e-005
1.742301e-005
1.736608e-005
1.730608e-005
1.724310e-005
1.717730e-005
1.710894e-005
1.703833e-005
1.696591e-005
1.689217e-005
1.681771e-005
1.674316e-005
1.666918e-005
1.659648e-005
1.652576e-005
1.645769e-005
1.639294e-005
1.633209e-005
1.627572e-005
1.622434e-005
1.617842e-005
1.613838e-005
1.610454e-005
1.607715e-005
1.605637e-005
1.604230e-005
1.603497e-005
1.603438e-005
1.604050e-005
1.605330e-005
1.607271e-005
1.609866e-005
1.613107e-005
1.616983e-005
1.621485e-005
1.626605e-005
1.632334e-005
1.638663e-005
1.645584e-005
1.653083e-005
1.661145e-005
1.669753e-005
1.678891e-005
1.688535e-005
1.698662e-005
1.709241e-005
1.720241e-005
1.731624e-005
1.743350e-005
1.755373e-005
1.767642e-005
1.780105e-005
1.792705e-005
1.805383e-005
1.818079e-005
1.830731e-005
1.843276e-005
1.855652e-005
1.867799e-005
1.879655e-005
1.891163e-005
1.902267e-005
1.912912e-005
1.923045e-005
1.932616e-005
1.941575e-005
1.949877e-005
1.957481e-005
1.964348e-005
1.970448e-005
1.975755e-005
1.980244e-005
1.983899e-005
1.986704e-005
1.988650e-005
1.989727e-005
1.989927e-005
1.989242e-005
1.987667e-005
1.985198e-005
1.981832e-005
1.977570e-005
1.972413e-005
1.966364e-005
1.959426e-005
1.951605e-005
1.942908e-005
1.933349e-005
1.922943e-005
1.911712e-005
1.899681e-005
1.886878e-005
1.873337e-005
1.859097e-005
1.844199e-005
1.828689e-005
1.812613e-005
1.796019e-005
1.778960e-005
1.761492e-005
1.743670e-005
1.725554e-005
1.707201e-005
1.688667e-005
1.670008e-005
1.651279e-005
1.632536e-005
1.613838e-005
1.595246e-005
1.576824e-005
1.558639e-005
1.540756e-005
1.523243e-005
1.506169e-005
1.489607e-005
1.473631e-005
1.458314e-005
1.443731e-005
1.429952e-005
1.417044e-005
1.405068e-005
1.394078e-005
1.384122e-005
1.375242e-005
1.367471e-005
1.360837e-005
1.355359e-005
1.351047e-005
1.347904e-005
1.345924e-005
1.345097e-005
1.345403e-005
1.346822e-005
1.349323e-005
1.352871e-005
1.357422e-005
1.362924e-005
1.369324e-005
1.376562e-005
1.384578e-005
1.393313e-005
1.402704e-005
1.412686e-005
1.423194e-005
1.434161e-005
1.445523e-005
1.457215e-005
1.469174e-005
1.481339e-005
1.493654e-005
1.506072e-005
1.518552e-005
1.531062e-005
1.543578e-005
1.556083e-005
1.568563e-005
1.581013e-005
1.593429e-005
1.605811e-005
1.618157e-005
1.630467e-005
1.642737e-005
1.654963e-005
1.667138e-005
1.679252e-005
1.691291e-005
1.703240e-005
1.715080e-005
1.726789e-005
1.738349e-005
1.749738e-005
1.760941e-005
1.771941e-005
1.782723e-005
1.793268e-005
1.803559e-005
1.813575e-005
1.823298e-005
1.832708e-005
1.841790e-005
1.850525e-005
1.858901e-005
1.866906e-005
1.874532e-005
1.881774e-005
1.888633e-005
1.895108e-005
1.901200e-005
1.906910e-005
1.912238e-005
1.917184e-005
1.921748e-005
1.925929e-005
1.929723e-005
1.933129e-005
1.936140e-005
1.938755e-005
1.940970e-005
1.942785e-005
1.944205e-005
1.945232e-005
1.945872e-005
1.946124e-005
1.945990e-005
1.945469e-005
1.944562e-005
1.943270e-005
1.941596e-005
1.939544e-005
1.937119e-005
1.934329e-005
1.931186e-005
1.927706e-005
1.923907e-005
1.919811e-005
1.915441e-005
1.910820e-005
1.905969e-005
1.900905e-005
1.895646e-005
1.890209e-005
1.884606e-005
1.878853e-005
1.872964e-005
1.866954e-005
1.860836e-005
1.854625e-005
1.848334e-005
1.841979e-005
1.835578e-005
1.829151e-005
1.822718e-005
1.816295e-005
1.809901e-005
1.803553e-005
1.797266e-005
1.791056e-005
1.784939e-005
1.778926e-005
1.773032e-005
1.767266e-005
1.761640e-005
1.756163e-005
1.750843e-005
1.745685e-005
1.740692e-005
1.735862e-005
1.731191e-005
1.726670e-005
1.722288e-005
1.718033e-005
1.713889e-005
1.709841e-005
1.705875e-005
1.701974e-005
1.698126e-005
1.694316e-005
1.690533e-005
1.686767e-005
1.683011e-005
1.679262e-005
1.675515e-005
1.671770e-005
1.668025e-005
1.664278e-005
1.660529e-005
1.656777e-005
1.653024e-005
1.649275e-005
1.645533e-005
1.641805e-005
1.638095e-005
1.634412e-005
1.630766e-005
1.627173e-005
1.623653e-005
1.620230e-005
1.616934e-005
1.613797e-005
1.610856e-005
1.608153e-005
1.605725e-005
1.603609e-005
1.601837e-005
1.600438e-005
1.599437e-005
1.598855e-005
1.598712e-005
1.599024e-005
1.599802e-005
1.601057e-005
1.602794e-005
1.605017e-005
1.607726e-005
1.610919e-005
1.614590e-005
1.618727e-005
1.623316e-005
1.628338e-005
1.633770e-005
1.639584e-005
1.645747e-005
1.652220e-005
1.658959e-005
1.665911e-005
1.673022e-005
1.680233e-005
1.687482e-005
1.694710e-005
1.701853e-005
1.708854e-005
1.715658e-005
1.722215e-005
1.728483e-005
1.734425e-005
1.740010e-005
1.745212e-005
1.750013e-005
1.754398e-005
1.758360e-005
1.761898e-005
1.765010e-005
1.767699e-005
1.769967e-005
1.771819e-005
1.773259e-005
1.774293e-005
1.774927e-005
1.775168e-005
1.775021e-005
1.774493e-005
1.773589e-005
1.772316e-005
1.770683e-005
1.768702e-005
1.766384e-005
1.763744e-005
1.760801e-005
1.757575e-005
1.754095e-005
1.750394e-005
1.746510e-005
1.742480e-005
1.738344e-005
1.734141e-005
1.729910e-005
1.725688e-005
1.721509e-005
1.717401e-005
1.713392e-005
1.709500e-005
1.705738e-005
1.702114e-005
1.698630e-005
1.695286e-005
1.692076e-005
1.688993e-005
1.686025e-005
1.683159e-005
1.680380e-005
1.677672e-005
1.675022e-005
1.672416e-005
1.669839e-005
1.667272e-005
1.664695e-005
1.662084e-005
1.659411e-005
1.656645e-005
1.653759e-005
1.650725e-005
1.647519e-005
1.644126e-005
1.640534e-005
1.636741e-005
1.632754e-005
1.628586e-005
1.624260e-005
1.619805e-005
1.615251e-005
1.610633e-005
1.605980e-005
1.601322e-005
1.596689e-005
1.592110e-005
1.587614e-005
1.583233e-005
1.579002e-005
1.574953e-005
1.571125e-005
1.567558e-005
1.564300e-005
1.561404e-005
1.558930e-005
1.556938e-005
1.555494e-005
1.554659e-005
1.554493e-005
1.555051e-005
1.556381e-005
1.558528e-005
1.561530e-005
1.565415e-005
1.570198e-005
1.575889e-005
1.582486e-005
1.589980e-005
1.598354e-005
1.607588e-005
1.617653e-005
1.628516e-005
1.640142e-005
1.652486e-005
1.665501e-005
1.679124e-005
1.693276e-005
1.707855e-005
1.722733e-005
1.737766e-005
1.752804e-005
1.767704e-005
1.782327e-005
1.796535e-005
1.810174e-005
1.823063e-005
1.835000e-005
1.845782e-005
1.855230e-005
1.863201e-005
1.869603e-005
1.874395e-005
1.877583e-005
1.879219e-005
1.879389e-005
1.878202e-005
1.875785e-005
1.872273e-005
1.867808e-005
1.862530e-005
1.856582e-005
1.850098e-005
1.843212e-005
1.836051e-005
1.828736e-005
1.821382e-005
1.814094e-005
1.806969e-005
1.800096e-005
1.793560e-005
1.787432e-005
1.781780e-005
1.776658e-005
1.772112e-005
1.768177e-005
1.764881e-005
1.762239e-005
1.760252e-005
1.758901e-005
1.758152e-005
1.757953e-005
