0
0
0
0
0
0
0
0
0
0
0
0
0
0
0
0
0
0
0
0
0
0
0
0
0
0
0
0
0
0
0
0
0
0
0
0
0
0
0
0
0
0
0
0
0
0
0
0
0
0
0
0
5.03548E-07
1.84634E-06
6.71397E-06
9.90311E-06
1.29244E-05
1.66171E-05
1.76242E-05
1.59457E-05
1.52743E-05
1.42672E-05
1.42672E-05
1.69528E-05
1.71206E-05
1.49386E-05
1.66171E-05
1.76242E-05
1.71206E-05
1.4435E-05
1.19173E-05
1.02388E-05
1.02388E-05
9.56741E-06
6.88182E-06
3.69268E-06
4.36408E-06
7.21752E-06
9.90311E-06
1.17494E-05
1.34279E-05
1.49386E-05
1.35958E-05
1.12459E-05
1.1078E-05
1.09102E-05
1.15816E-05
1.09102E-05
1.0071E-05
1.05745E-05
1.2253E-05
1.39315E-05
1.64492E-05
1.91348E-05
1.72885E-05
1.39315E-05
1.19173E-05
1.32601E-05
1.32601E-05
1.19173E-05
1.02388E-05
7.21752E-06
2.51774E-06
-1.0071E-06
-1.51064E-06
-2.85344E-06
-5.53902E-06
-6.21042E-06
-3.18914E-06
2.85344E-06
7.55322E-06
9.23171E-06
8.22461E-06
6.88182E-06
7.55322E-06
1.04067E-05
1.51064E-05
2.03098E-05
2.16526E-05
1.91348E-05
1.76242E-05
1.76242E-05
1.66171E-05
1.39315E-05
1.05745E-05
7.21752E-06
8.72816E-06
1.2253E-05
1.62814E-05
1.72885E-05
1.66171E-05
1.69528E-05
1.7792E-05
1.62814E-05
1.46029E-05
1.59457E-05
1.69528E-05
1.64492E-05
1.46029E-05
1.15816E-05
8.56031E-06
7.72107E-06
9.56741E-06
9.90311E-06
7.88891E-06
4.53193E-06
2.34989E-06
6.71397E-07
-1.84634E-06
-1.67849E-06
8.39246E-07
3.52483E-06
9.90311E-06
1.52743E-05
1.59457E-05
1.561E-05
1.59457E-05
1.52743E-05
1.69528E-05
1.98062E-05
2.56809E-05
3.10521E-05
3.23949E-05
2.73594E-05
2.26596E-05
1.98062E-05
1.72885E-05
1.59457E-05
1.561E-05
1.35958E-05
1.25887E-05
1.25887E-05
1.2253E-05
1.27565E-05
1.19173E-05
9.23171E-06
6.71397E-06
5.87472E-06
9.90311E-06
1.35958E-05
1.51064E-05
1.47707E-05
1.49386E-05
1.4435E-05
1.30922E-05
1.09102E-05
9.90311E-06
1.1078E-05
1.19173E-05
1.0071E-05
7.88891E-06
5.53902E-06
3.18914E-06
2.18204E-06
2.01419E-06
1.17494E-06
1.0071E-06
-1.17494E-06
-2.51774E-06
-1.0071E-06
0
-1.17494E-06
-8.39246E-07
1.17494E-06
3.86053E-06
8.22461E-06
1.05745E-05
1.19173E-05
1.24208E-05
1.20851E-05
1.25887E-05
1.15816E-05
1.15816E-05
1.57778E-05
1.99741E-05
1.99741E-05
1.8967E-05
1.71206E-05
1.87991E-05
2.09812E-05
2.16526E-05
2.09812E-05
1.79599E-05
1.35958E-05
1.15816E-05
1.14137E-05
1.05745E-05
1.02388E-05
1.05745E-05
8.89601E-06
6.88182E-06
6.21042E-06
4.19623E-06
1.67849E-06
5.03548E-07
1.67849E-07
-6.71397E-07
-2.85344E-06
-2.51774E-06
3.18914E-06
8.22461E-06
9.23171E-06
8.39246E-06
8.56031E-06
1.04067E-05
1.25887E-05
1.15816E-05
1.05745E-05
1.12459E-05
1.05745E-05
1.24208E-05
1.82956E-05
2.29953E-05
2.26596E-05
1.93027E-05
1.7792E-05
2.03098E-05
2.13169E-05
1.86313E-05
1.62814E-05
1.81277E-05
1.98062E-05
1.86313E-05
1.72885E-05
1.79599E-05
1.99741E-05
1.94705E-05
1.76242E-05
1.52743E-05
1.19173E-05
9.23171E-06
9.90311E-06
1.15816E-05
1.19173E-05
1.05745E-05
8.05676E-06
7.88891E-06
1.12459E-05
1.32601E-05
1.46029E-05
1.42672E-05
8.89601E-06
3.18914E-06
3.02129E-06
5.20333E-06
7.55322E-06
8.22461E-06
7.04967E-06
5.20333E-06
-6.71397E-07
-7.72107E-06
-9.73526E-06
-5.87472E-06
1.17494E-06
7.21752E-06
1.02388E-05
1.37636E-05
1.67849E-05
1.72885E-05
1.84634E-05
1.91348E-05
1.8967E-05
1.72885E-05
1.57778E-05
1.66171E-05
1.79599E-05
2.13169E-05
2.3331E-05
2.19882E-05
1.99741E-05
1.76242E-05
1.52743E-05
1.29244E-05
9.23171E-06
7.88891E-06
9.73526E-06
1.2253E-05
1.46029E-05
1.62814E-05
1.52743E-05
1.25887E-05
8.22461E-06
5.53902E-06
5.87472E-06
7.55322E-06
7.04967E-06
7.21752E-06
6.88182E-06
8.22461E-06
1.15816E-05
1.34279E-05
1.51064E-05
1.57778E-05
1.25887E-05
1.09102E-05
1.35958E-05
1.46029E-05
1.29244E-05
1.02388E-05
7.88891E-06
6.21042E-06
3.86053E-06
1.17494E-06
5.03548E-07
3.18914E-06
6.54612E-06
7.55322E-06
5.20333E-06
3.18914E-06
4.86763E-06
7.55322E-06
7.88891E-06
7.04967E-06
7.38537E-06
1.12459E-05
1.46029E-05
1.54421E-05
1.51064E-05
1.42672E-05
1.17494E-05
9.73526E-06
1.19173E-05
1.46029E-05
1.59457E-05
1.46029E-05
9.56741E-06
5.87472E-06
6.37827E-06
7.72107E-06
8.22461E-06
8.22461E-06
8.22461E-06
8.22461E-06
4.02838E-06
-1.0071E-06
-1.67849E-07
6.54612E-06
1.39315E-05
1.84634E-05
1.98062E-05
2.13169E-05
2.38346E-05
2.29953E-05
2.16526E-05
2.09812E-05
2.06455E-05
2.09812E-05
2.3331E-05
2.3331E-05
2.13169E-05
2.13169E-05
2.03098E-05
1.99741E-05
1.86313E-05
1.40993E-05
1.15816E-05
8.56031E-06
3.86053E-06
2.51774E-06
2.51774E-06
1.17494E-06
3.86053E-06
5.87472E-06
4.19623E-06
2.51774E-06
1.84634E-06
3.18914E-06
5.70687E-06
6.88182E-06
5.53902E-06
2.34989E-06
-3.18914E-06
-6.54612E-06
-5.87472E-06
-2.18204E-06
1.17494E-06
4.86763E-06
6.21042E-06
7.88891E-06
1.17494E-05
1.69528E-05
2.13169E-05
2.29953E-05
2.50095E-05
2.60166E-05
2.6688E-05
2.97093E-05
3.20592E-05
3.13878E-05
2.92058E-05
2.90379E-05
2.73594E-05
2.40024E-05
2.13169E-05
1.79599E-05
1.35958E-05
9.23171E-06
6.54612E-06
7.55322E-06
8.89601E-06
7.88891E-06
5.20333E-06
4.69978E-06
7.21752E-06
9.56741E-06
7.88891E-06
5.87472E-06
8.89601E-06
1.1078E-05
1.05745E-05
9.90311E-06
8.22461E-06
6.88182E-06
6.21042E-06
6.21042E-06
6.21042E-06
5.20333E-06
4.86763E-06
6.71397E-06
8.39246E-06
6.37827E-06
5.20333E-06
4.86763E-06
2.68559E-06
4.86763E-06
8.89601E-06
1.05745E-05
8.72816E-06
8.39246E-06
9.23171E-06
9.56741E-06
7.88891E-06
7.21752E-06
9.56741E-06
1.30922E-05
1.46029E-05
1.59457E-05
1.561E-05
1.49386E-05
1.64492E-05
1.99741E-05
2.13169E-05
1.93027E-05
1.66171E-05
1.47707E-05
1.42672E-05
1.24208E-05
1.17494E-05
9.23171E-06
3.52483E-06
-1.84634E-06
-1.84634E-06
8.39246E-07
3.02129E-06
6.21042E-06
1.02388E-05
1.24208E-05
1.04067E-05
6.88182E-06
8.22461E-06
1.1078E-05
1.15816E-05
1.32601E-05
1.39315E-05
1.42672E-05
1.46029E-05
1.39315E-05
1.19173E-05
1.32601E-05
1.72885E-05
2.13169E-05
2.50095E-05
2.76951E-05
2.65202E-05
2.08133E-05
1.32601E-05
7.21752E-06
5.70687E-06
6.88182E-06
8.56031E-06
6.54612E-06
0
-4.19623E-06
-3.52483E-06
-1.17494E-06
3.86053E-06
1.04067E-05
1.32601E-05
1.25887E-05
1.19173E-05
1.19173E-05
1.42672E-05
1.62814E-05
1.66171E-05
1.79599E-05
1.79599E-05
1.64492E-05
1.69528E-05
1.79599E-05
1.7792E-05
1.561E-05
1.02388E-05
3.86053E-06
0
1.17494E-06
5.87472E-06
1.05745E-05
1.29244E-05
1.32601E-05
1.25887E-05
1.35958E-05
1.59457E-05
1.79599E-05
1.79599E-05
1.72885E-05
1.52743E-05
1.2253E-05
1.27565E-05
1.29244E-05
1.25887E-05
1.32601E-05
1.57778E-05
1.81277E-05
1.86313E-05
1.40993E-05
7.88891E-06
3.02129E-06
-3.35698E-07
-8.39246E-07
1.17494E-06
2.51774E-06
3.52483E-06
3.86053E-06
5.03548E-06
8.22461E-06
1.05745E-05
1.12459E-05
1.30922E-05
1.52743E-05
1.46029E-05
1.25887E-05
1.15816E-05
1.27565E-05
1.64492E-05
1.69528E-05
1.66171E-05
1.94705E-05
2.04776E-05
1.86313E-05
1.66171E-05
1.42672E-05
1.12459E-05
8.56031E-06
5.20333E-06
1.51064E-06
-2.01419E-06
-4.36408E-06
-4.69978E-06
-3.69268E-06
-4.53193E-06
-5.70687E-06
-5.53902E-06
-8.39246E-07
5.03548E-06
9.56741E-06
1.12459E-05
1.35958E-05
1.59457E-05
1.69528E-05
1.93027E-05
1.98062E-05
1.86313E-05
1.84634E-05
1.71206E-05
1.72885E-05
1.7792E-05
1.27565E-05
9.06386E-06
9.06386E-06
8.39246E-06
8.22461E-06
1.05745E-05
1.37636E-05
1.49386E-05
1.49386E-05
1.561E-05
1.52743E-05
1.2253E-05
1.19173E-05
1.561E-05
1.86313E-05
1.86313E-05
1.86313E-05
1.93027E-05
1.86313E-05
1.32601E-05
9.56741E-06
1.19173E-05
1.47707E-05
1.62814E-05
1.86313E-05
2.06455E-05
2.13169E-05
2.01419E-05
1.62814E-05
9.73526E-06
4.53193E-06
5.03548E-07
-4.36408E-06
-9.56741E-06
-1.17494E-05
-1.15816E-05
-9.56741E-06
-6.88182E-06
-1.17494E-06
6.88182E-06
1.19173E-05
1.46029E-05
1.69528E-05
1.79599E-05
1.91348E-05
2.19882E-05
2.50095E-05
2.7863E-05
2.76951E-05
2.40024E-05
2.43381E-05
2.65202E-05
2.6688E-05
2.76951E-05
2.98772E-05
2.80308E-05
2.65202E-05
2.60166E-05
2.26596E-05
2.06455E-05
1.94705E-05
1.59457E-05
1.12459E-05
8.22461E-06
7.88891E-06
8.89601E-06
8.89601E-06
8.22461E-06
8.22461E-06
5.87472E-06
2.51774E-06
-1.67849E-07
-2.34989E-06
-2.18204E-06
-8.39246E-07
-1.17494E-06
-1.51064E-06
8.39246E-07
3.86053E-06
5.70687E-06
5.20333E-06
5.03548E-06
6.21042E-06
8.56031E-06
1.19173E-05
1.35958E-05
1.32601E-05
1.02388E-05
7.88891E-06
6.88182E-06
7.38537E-06
9.23171E-06
1.05745E-05
1.02388E-05
7.55322E-06
5.87472E-06
7.04967E-06
1.15816E-05
1.40993E-05
1.30922E-05
1.15816E-05
8.56031E-06
6.54612E-06
7.21752E-06
7.88891E-06
8.89601E-06
9.23171E-06
7.88891E-06
7.21752E-06
7.21752E-06
6.37827E-06
4.86763E-06
3.86053E-06
4.53193E-06
6.54612E-06
6.21042E-06
4.19623E-06
5.20333E-06
8.56031E-06
1.12459E-05
1.05745E-05
1.05745E-05
1.46029E-05
1.79599E-05
1.91348E-05
1.8967E-05
1.7792E-05
1.46029E-05
1.39315E-05
1.59457E-05
1.59457E-05
1.57778E-05
1.66171E-05
1.32601E-05
8.56031E-06
7.88891E-06
9.90311E-06
1.15816E-05
1.30922E-05
1.37636E-05
1.37636E-05
1.35958E-05
1.17494E-05
8.89601E-06
9.73526E-06
1.12459E-05
1.24208E-05
1.49386E-05
1.84634E-05
1.99741E-05
1.79599E-05
1.49386E-05
1.12459E-05
7.21752E-06
6.37827E-06
9.23171E-06
1.40993E-05
1.66171E-05
1.46029E-05
9.90311E-06
9.56741E-06
1.25887E-05
1.59457E-05
1.76242E-05
1.72885E-05
1.52743E-05
1.66171E-05
1.4435E-05
9.23171E-06
7.72107E-06
1.02388E-05
1.1078E-05
9.90311E-06
1.04067E-05
1.2253E-05
1.42672E-05
1.49386E-05
1.37636E-05
1.2253E-05
1.09102E-05
1.02388E-05
1.12459E-05
1.12459E-05
1.12459E-05
1.39315E-05
1.59457E-05
1.62814E-05
1.62814E-05
1.561E-05
1.66171E-05
1.98062E-05
1.96384E-05
1.52743E-05
1.02388E-05
7.55322E-06
9.73526E-06
1.39315E-05
1.561E-05
1.49386E-05
1.19173E-05
8.72816E-06
1.04067E-05
1.27565E-05
1.29244E-05
9.23171E-06
4.53193E-06
4.02838E-06
5.20333E-06
4.19623E-06
3.18914E-06
3.86053E-06
3.86053E-06
2.85344E-06
5.03548E-07
-8.39246E-07
-1.34279E-06
-1.17494E-06
-2.18204E-06
-2.18204E-06
1.67849E-07
4.19623E-06
9.23171E-06
1.25887E-05
1.32601E-05
1.15816E-05
7.88891E-06
8.39246E-06
1.2253E-05
1.49386E-05
1.49386E-05
1.15816E-05
6.21042E-06
3.86053E-06
6.04257E-06
9.90311E-06
1.24208E-05
1.49386E-05
1.59457E-05
1.66171E-05
1.66171E-05
1.66171E-05
1.76242E-05
1.59457E-05
1.32601E-05
1.25887E-05
1.12459E-05
1.12459E-05
1.19173E-05
1.17494E-05
1.05745E-05
1.25887E-05
1.46029E-05
1.69528E-05
1.79599E-05
1.86313E-05
1.8967E-05
1.86313E-05
1.66171E-05
1.66171E-05
1.7792E-05
1.39315E-05
6.88182E-06
3.18914E-06
3.02129E-06
5.20333E-06
5.20333E-06
5.20333E-06
8.22461E-06
1.1078E-05
9.73526E-06
7.21752E-06
8.39246E-06
1.35958E-05
1.93027E-05
2.43381E-05
2.71916E-05
2.6688E-05
2.13169E-05
1.54421E-05
1.35958E-05
1.59457E-05
1.7792E-05
1.46029E-05
9.56741E-06
7.38537E-06
9.23171E-06
1.02388E-05
8.39246E-06
4.86763E-06
3.35698E-07
6.71397E-07
4.19623E-06
5.20333E-06
5.20333E-06
7.21752E-06
5.70687E-06
2.51774E-06
2.18204E-06
5.53902E-06
1.05745E-05
1.4435E-05
1.69528E-05
1.79599E-05
1.57778E-05
1.17494E-05
1.1078E-05
1.32601E-05
1.57778E-05
1.71206E-05
1.66171E-05
1.39315E-05
1.14137E-05
1.15816E-05
1.25887E-05
1.4435E-05
1.46029E-05
1.47707E-05
1.51064E-05
1.47707E-05
1.32601E-05
1.39315E-05
1.46029E-05
1.59457E-05
1.42672E-05
1.05745E-05
1.0071E-05
8.39246E-06
3.86053E-06
1.67849E-07
-3.02129E-06
-4.53193E-06
-2.51774E-06
2.18204E-06
7.21752E-06
1.04067E-05
9.23171E-06
6.54612E-06
6.04257E-06
9.56741E-06
1.39315E-05
1.561E-05
1.46029E-05
1.39315E-05
1.35958E-05
1.24208E-05
1.02388E-05
1.12459E-05
1.52743E-05
1.72885E-05
1.42672E-05
9.73526E-06
1.02388E-05
1.46029E-05
1.62814E-05
1.561E-05
1.39315E-05
1.32601E-05
1.81277E-05
2.26596E-05
2.26596E-05
2.06455E-05
1.99741E-05
2.13169E-05
2.13169E-05
1.82956E-05
1.49386E-05
1.15816E-05
8.89601E-06
9.56741E-06
1.09102E-05
8.56031E-06
4.86763E-06
4.53193E-06
5.20333E-06
6.88182E-06
7.21752E-06
5.20333E-06
7.04967E-06
1.19173E-05
1.49386E-05
1.25887E-05
4.53193E-06
-3.86053E-06
-5.87472E-06
-2.01419E-06
1.51064E-06
3.02129E-06
3.02129E-06
5.03548E-07
-4.19623E-06
-7.88891E-06
-4.19623E-06
5.70687E-06
1.39315E-05
1.79599E-05
1.86313E-05
1.86313E-05
1.99741E-05
1.98062E-05
1.66171E-05
1.35958E-05
1.30922E-05
1.42672E-05
1.59457E-05
1.4435E-05
1.1078E-05
9.90311E-06
1.05745E-05
1.29244E-05
1.27565E-05
9.56741E-06
8.22461E-06
9.06386E-06
9.23171E-06
9.39956E-06
1.14137E-05
1.46029E-05
1.62814E-05
1.57778E-05
1.32601E-05
1.52743E-05
2.06455E-05
2.24918E-05
2.13169E-05
1.8967E-05
1.66171E-05
1.59457E-05
1.52743E-05
1.12459E-05
8.56031E-06
9.90311E-06
1.25887E-05
1.39315E-05
1.2253E-05
1.0071E-05
9.56741E-06
9.90311E-06
9.39956E-06
5.87472E-06
8.39246E-07
1.17494E-06
8.22461E-06
1.30922E-05
1.32601E-05
1.24208E-05
1.46029E-05
1.72885E-05
1.69528E-05
1.32601E-05
1.05745E-05
1.05745E-05
1.02388E-05
1.12459E-05
1.59457E-05
2.09812E-05
2.38346E-05
2.31632E-05
2.06455E-05
1.7792E-05
1.59457E-05
1.49386E-05
1.39315E-05
1.35958E-05
1.27565E-05
1.12459E-05
9.06386E-06
7.21752E-06
7.72107E-06
9.56741E-06
8.89601E-06
6.54612E-06
2.51774E-06
1.67849E-07
1.84634E-06
4.86763E-06
8.56031E-06
1.05745E-05
9.23171E-06
9.23171E-06
1.12459E-05
1.35958E-05
1.561E-05
1.76242E-05
1.66171E-05
1.19173E-05
6.37827E-06
5.87472E-06
9.23171E-06
1.14137E-05
1.19173E-05
1.24208E-05
1.25887E-05
1.39315E-05
1.52743E-05
1.54421E-05
1.59457E-05
1.66171E-05
1.35958E-05
1.19173E-05
1.4435E-05
1.76242E-05
1.59457E-05
1.39315E-05
1.35958E-05
1.46029E-05
1.19173E-05
7.88891E-06
6.54612E-06
7.21752E-06
6.37827E-06
5.03548E-06
3.86053E-06
5.87472E-06
1.12459E-05
1.561E-05
1.52743E-05
8.22461E-06
-3.18914E-06
-7.72107E-06
-5.03548E-06
-2.18204E-06
-8.39246E-07
1.51064E-06
3.52483E-06
7.88891E-06
1.05745E-05
9.73526E-06
8.39246E-06
1.12459E-05
1.49386E-05
1.91348E-05
2.19882E-05
2.26596E-05
2.09812E-05
1.76242E-05
1.46029E-05
1.25887E-05
1.05745E-05
9.23171E-06
1.04067E-05
1.12459E-05
1.25887E-05
1.2253E-05
8.22461E-06
7.04967E-06
1.04067E-05
1.49386E-05
1.66171E-05
1.32601E-05
7.21752E-06
6.54612E-06
1.14137E-05
1.46029E-05
1.34279E-05
1.12459E-05
8.89601E-06
8.89601E-06
1.05745E-05
1.19173E-05
1.51064E-05
1.79599E-05
1.82956E-05
1.7792E-05
1.59457E-05
1.59457E-05
1.71206E-05
1.72885E-05
1.4435E-05
9.56741E-06
6.21042E-06
8.56031E-06
1.2253E-05
1.19173E-05
1.02388E-05
9.90311E-06
8.89601E-06
9.23171E-06
1.05745E-05
1.25887E-05
1.40993E-05
1.12459E-05
5.03548E-06
1.17494E-06
0
-1.67849E-07
3.35698E-06
7.55322E-06
7.88891E-06
6.88182E-06
5.53902E-06
6.21042E-06
6.88182E-06
7.21752E-06
7.55322E-06
6.54612E-06
4.19623E-06
7.04967E-06
1.32601E-05
1.72885E-05
1.76242E-05
1.72885E-05
1.79599E-05
1.93027E-05
1.99741E-05
1.99741E-05
1.91348E-05
1.79599E-05
1.66171E-05
1.71206E-05
1.69528E-05
1.59457E-05
1.81277E-05
1.96384E-05
1.93027E-05
1.561E-05
9.23171E-06
7.55322E-06
1.02388E-05
1.02388E-05
7.55322E-06
6.37827E-06
4.36408E-06
3.02129E-06
5.20333E-06
8.39246E-06
7.88891E-06
4.19623E-06
0
-1.51064E-06
5.03548E-07
1.17494E-06
-8.39246E-07
-1.84634E-06
-8.39246E-07
2.51774E-06
5.87472E-06
7.21752E-06
9.06386E-06
1.15816E-05
1.27565E-05
1.49386E-05
1.84634E-05
2.13169E-05
2.26596E-05
2.31632E-05
2.3331E-05
2.26596E-05
1.91348E-05
1.8967E-05
2.19882E-05
2.13169E-05
2.13169E-05
2.19882E-05
2.13169E-05
1.82956E-05
1.59457E-05
1.561E-05
1.39315E-05
1.19173E-05
1.25887E-05
1.66171E-05
1.84634E-05
1.46029E-05
1.02388E-05
8.89601E-06
1.1078E-05
1.39315E-05
1.47707E-05
1.54421E-05
1.79599E-05
1.79599E-05
1.37636E-05
7.88891E-06
8.39246E-07
-3.18914E-06
-1.67849E-06
5.03548E-07
3.18914E-06
4.69978E-06
3.18914E-06
4.19623E-06
7.38537E-06
9.90311E-06
1.12459E-05
9.56741E-06
1.05745E-05
1.39315E-05
1.32601E-05
1.19173E-05
1.27565E-05
1.39315E-05
1.1078E-05
7.21752E-06
5.03548E-06
5.53902E-06
8.89601E-06
1.0071E-05
7.72107E-06
5.87472E-06
6.21042E-06
9.56741E-06
1.4435E-05
1.40993E-05
1.2253E-05
1.14137E-05
1.02388E-05
1.05745E-05
1.34279E-05
1.54421E-05
1.4435E-05
1.4435E-05
1.32601E-05
1.15816E-05
9.90311E-06
7.88891E-06
8.56031E-06
8.39246E-06
7.55322E-06
6.88182E-06
4.69978E-06
4.19623E-06
7.72107E-06
1.20851E-05
1.32601E-05
9.90311E-06
3.86053E-06
1.84634E-06
5.87472E-06
9.56741E-06
1.05745E-05
1.12459E-05
1.04067E-05
9.23171E-06
1.30922E-05
1.57778E-05
1.59457E-05
1.72885E-05
1.8967E-05
1.93027E-05
1.7792E-05
1.59457E-05
1.52743E-05
1.64492E-05
1.86313E-05
1.86313E-05
1.8967E-05
1.99741E-05
2.03098E-05
1.66171E-05
1.35958E-05
1.15816E-05
9.23171E-06
7.88891E-06
8.89601E-06
1.09102E-05
1.12459E-05
9.56741E-06
5.20333E-06
4.19623E-06
7.21752E-06
9.90311E-06
8.56031E-06
5.87472E-06
4.53193E-06
3.86053E-06
2.85344E-06
1.51064E-06
2.85344E-06
4.19623E-06
6.04257E-06
8.22461E-06
6.88182E-06
6.37827E-06
9.90311E-06
1.19173E-05
1.17494E-05
7.88891E-06
-1.67849E-07
-7.72107E-06
-8.22461E-06
-5.20333E-06
-2.18204E-06
5.03548E-07
3.69268E-06
1.02388E-05
1.8967E-05
2.29953E-05
2.09812E-05
1.98062E-05
2.40024E-05
3.20592E-05
3.70947E-05
3.69268E-05
3.47448E-05
3.122E-05
2.80308E-05
2.31632E-05
1.561E-05
9.90311E-06
9.23171E-06
1.05745E-05
1.17494E-05
1.17494E-05
9.23171E-06
8.22461E-06
1.12459E-05
1.561E-05
1.54421E-05
1.25887E-05
9.23171E-06
5.70687E-06
4.36408E-06
4.69978E-06
7.38537E-06
1.25887E-05
1.51064E-05
1.39315E-05
1.04067E-05
7.88891E-06
9.23171E-06
1.24208E-05
1.39315E-05
1.32601E-05
9.56741E-06
6.37827E-06
7.55322E-06
1.17494E-05
1.37636E-05
1.1078E-05
8.39246E-06
9.73526E-06
1.32601E-05
1.59457E-05
1.66171E-05
1.79599E-05
1.71206E-05
1.35958E-05
1.19173E-05
1.17494E-05
1.19173E-05
1.32601E-05
1.32601E-05
1.24208E-05
9.90311E-06
6.54612E-06
5.87472E-06
8.56031E-06
9.90311E-06
8.22461E-06
4.86763E-06
5.20333E-06
8.39246E-06
8.72816E-06
7.04967E-06
5.20333E-06
2.01419E-06
-2.18204E-06
-6.04257E-06
-1.15816E-05
-1.39315E-05
-1.05745E-05
-3.86053E-06
3.86053E-06
1.02388E-05
1.82956E-05
2.60166E-05
2.80308E-05
2.63523E-05
2.60166E-05
2.51774E-05
2.23239E-05
2.03098E-05
2.03098E-05
2.18204E-05
2.26596E-05
2.06455E-05
1.86313E-05
2.19882E-05
2.63523E-05
2.65202E-05
2.40024E-05
1.86313E-05
1.46029E-05
1.42672E-05
1.40993E-05
1.25887E-05
1.02388E-05
7.38537E-06
7.21752E-06
7.88891E-06
5.87472E-06
2.51774E-06
1.84634E-06
4.86763E-06
7.21752E-06
7.55322E-06
6.54612E-06
7.55322E-06
9.56741E-06
9.06386E-06
6.54612E-06
4.53193E-06
4.53193E-06
5.87472E-06
6.21042E-06
7.55322E-06
7.72107E-06
6.88182E-06
6.88182E-06
8.39246E-06
1.02388E-05
1.05745E-05
9.23171E-06
7.21752E-06
5.87472E-06
5.53902E-06
4.86763E-06
5.70687E-06
6.21042E-06
4.02838E-06
2.51774E-06
3.86053E-06
7.21752E-06
1.25887E-05
1.49386E-05
1.49386E-05
1.561E-05
1.39315E-05
1.25887E-05
1.46029E-05
1.66171E-05
1.79599E-05
1.8967E-05
1.7792E-05
1.54421E-05
1.561E-05
1.66171E-05
1.66171E-05
1.4435E-05
1.2253E-05
1.32601E-05
1.51064E-05
1.46029E-05
1.32601E-05
1.15816E-05
1.05745E-05
1.19173E-05
1.04067E-05
8.89601E-06
9.23171E-06
9.56741E-06
1.15816E-05
1.35958E-05
1.1078E-05
7.88891E-06
9.23171E-06
1.1078E-05
1.05745E-05
1.09102E-05
1.15816E-05
1.32601E-05
1.57778E-05
1.71206E-05
1.82956E-05
1.8967E-05
1.79599E-05
1.66171E-05
1.51064E-05
1.32601E-05
1.05745E-05
8.72816E-06
5.20333E-06
2.85344E-06
5.03548E-07
6.71397E-07
4.19623E-06
7.55322E-06
1.0071E-05
1.05745E-05
9.39956E-06
1.05745E-05
1.54421E-05
1.8967E-05
1.79599E-05
1.59457E-05
1.59457E-05
1.72885E-05
1.93027E-05
1.96384E-05
1.67849E-05
1.4435E-05
1.19173E-05
1.14137E-05
1.2253E-05
1.14137E-05
1.1078E-05
9.90311E-06
6.21042E-06
1.17494E-06
-2.85344E-06
-3.02129E-06
1.67849E-07
4.69978E-06
9.06386E-06
1.0071E-05
6.88182E-06
3.86053E-06
2.51774E-06
5.20333E-06
1.05745E-05
1.59457E-05
1.82956E-05
1.82956E-05
1.59457E-05
1.35958E-05
1.39315E-05
1.76242E-05
2.26596E-05
2.60166E-05
2.70237E-05
2.6688E-05
2.40024E-05
1.79599E-05
1.19173E-05
9.23171E-06
5.20333E-06
0
-2.34989E-06
-5.03548E-07
1.34279E-06
1.17494E-06
-1.67849E-07
-1.17494E-06
1.67849E-06
6.37827E-06
6.54612E-06
1.84634E-06
-2.85344E-06
-1.84634E-06
4.53193E-06
8.89601E-06
7.88891E-06
6.54612E-06
8.22461E-06
1.29244E-05
1.81277E-05
1.99741E-05
1.7792E-05
1.25887E-05
8.72816E-06
9.56741E-06
1.05745E-05
1.02388E-05
1.29244E-05
1.57778E-05
1.46029E-05
1.25887E-05
9.90311E-06
6.54612E-06
6.37827E-06
8.72816E-06
1.17494E-05
1.54421E-05
1.72885E-05
1.86313E-05
1.93027E-05
1.79599E-05
1.57778E-05
1.19173E-05
4.53193E-06
1.67849E-07
1.17494E-06
4.53193E-06
6.54612E-06
9.23171E-06
1.15816E-05
1.39315E-05
1.54421E-05
1.59457E-05
1.76242E-05
2.09812E-05
2.16526E-05
2.01419E-05
1.86313E-05
1.98062E-05
2.24918E-05
2.3331E-05
1.99741E-05
1.71206E-05
1.4435E-05
9.39956E-06
7.72107E-06
9.56741E-06
1.02388E-05
7.72107E-06
5.20333E-06
7.38537E-06
9.90311E-06
1.04067E-05
1.09102E-05
1.39315E-05
1.35958E-05
1.25887E-05
1.05745E-05
9.23171E-06
1.12459E-05
1.12459E-05
7.88891E-06
5.20333E-06
4.69978E-06
6.37827E-06
6.88182E-06
5.53902E-06
9.73526E-06
1.99741E-05
2.53452E-05
2.56809E-05
2.53452E-05
2.19882E-05
1.32601E-05
3.86053E-06
-2.34989E-06
-6.04257E-06
-1.02388E-05
-1.24208E-05
-9.56741E-06
-3.18914E-06
5.03548E-07
2.01419E-06
3.86053E-06
8.56031E-06
1.67849E-05
2.40024E-05
2.43381E-05
1.8967E-05
1.46029E-05
1.14137E-05
9.90311E-06
1.1078E-05
1.37636E-05
1.64492E-05
1.99741E-05
2.63523E-05
3.27306E-05
3.45769E-05
3.20592E-05
2.6688E-05
1.69528E-05
9.56741E-06
1.05745E-05
1.46029E-05
1.76242E-05
2.28275E-05
2.71916E-05
2.70237E-05
2.46738E-05
2.13169E-05
1.94705E-05
1.66171E-05
9.23171E-06
-2.85344E-06
-1.39315E-05
-1.82956E-05
-1.561E-05
-1.19173E-05
-8.89601E-06
-5.53902E-06
-3.86053E-06
-2.18204E-06
3.86053E-06
1.15816E-05
1.8967E-05
2.6688E-05
3.3402E-05
4.07874E-05
4.64942E-05
4.93477E-05
4.51514E-05
3.69268E-05
2.75273E-05
2.03098E-05
1.35958E-05
6.54612E-06
8.39246E-07
-2.85344E-06
-5.87472E-06
-9.56741E-06
-1.40993E-05
-1.66171E-05
-1.561E-05
-1.561E-05
-2.19882E-05
-3.07164E-05
-3.28985E-05
-2.83665E-05
-1.99741E-05
-8.56031E-06
7.55322E-06
2.13169E-05
2.85344E-05
3.40734E-05
4.11231E-05
3.86053E-05
2.63523E-05
1.54421E-05
1.29244E-05
1.72885E-05
1.72885E-05
1.05745E-05
5.87472E-06
5.70687E-06
5.70687E-06
3.18914E-06
-4.86763E-06
-9.56741E-06
-3.86053E-06
1.05745E-05
2.93736E-05
4.54871E-05
4.75013E-05
3.64233E-05
2.21561E-05
8.56031E-06
-6.88182E-06
-2.28275E-05
-3.91089E-05
-4.448E-05
-2.80308E-05
-7.04967E-06
7.88891E-06
2.18204E-05
3.18914E-05
4.3473E-05
6.42863E-05
8.47639E-05
9.78561E-05
9.55062E-05
6.84825E-05
2.87022E-05
-2.51774E-06
-1.69528E-05
-1.561E-05
-3.52483E-06
1.40993E-05
3.25628E-05
4.28016E-05
3.74304E-05
3.17235E-05
3.54162E-05
3.74304E-05
2.83665E-05
1.32601E-05
1.51064E-06
-5.70687E-06
-1.14137E-05
-1.81277E-05
-2.65202E-05
-3.35698E-05
-3.60876E-05
-3.50805E-05
-2.70237E-05
-1.35958E-05
-4.19623E-06
3.52483E-06
1.32601E-05
1.99741E-05
2.23239E-05
2.75273E-05
2.63523E-05
1.09102E-05
-5.53902E-06
-3.69268E-06
8.22461E-06
1.02388E-05
7.88891E-06
2.51774E-06
-1.51064E-05
-3.99481E-05
-5.60616E-05
-6.02579E-05
-4.53193E-05
-8.22461E-06
2.80308E-05
4.06195E-05
3.30663E-05
2.13169E-05
1.99741E-05
3.25628E-05
4.41443E-05
4.14588E-05
4.07874E-05
5.13619E-05
6.42863E-05
7.04967E-05
6.32792E-05
4.54871E-05
2.93736E-05
1.96384E-05
4.86763E-06
-1.98062E-05
-3.23949E-05
-2.53452E-05
-1.27565E-05
-1.84634E-06
9.73526E-06
3.10521E-05
5.25368E-05
3.77661E-05
-2.51774E-05
-0.000100206
-0.000152071
-0.000180102
-0.00020763
-0.000246906
-0.000273426
-0.000260334
-0.000195209
-7.87213E-05
7.55322E-05
0.000242878
0.000389242
0.000489113
0.000534264
0.000502037
0.000398306
0.000270405
0.000164996
9.21492E-05
3.40734E-05
-1.66171E-05
-4.3473E-05
-4.64942E-05
-3.23949E-05
-8.39246E-07
3.94446E-05
8.27497E-05
0.000133776
0.00017171
0.000171374
0.000135454
8.77851E-05
5.38796E-05
5.03548E-05
5.33761E-05
3.44091E-05
-5.87472E-06
-6.19364E-05
-0.000121187
-0.000163149
-0.00018497
-0.000195041
-0.000192187
-0.000176577
-0.000156436
-0.000138811
-0.000123201
-0.000103059
-7.97284E-05
-5.94186E-05
-5.05226E-05
-5.62295E-05
-6.71397E-05
-7.53643E-05
-8.61067E-05
-0.000100374
-0.000106584
-0.000105409
-9.91989E-05
-8.52674E-05
-6.52934E-05
-3.3402E-05
1.19173E-05
5.87472E-05
9.43313E-05
0.000112627
0.000111955
0.000102388
9.24849E-05
7.10002E-05
4.0116E-05
1.24208E-05
-9.23171E-06
-2.48417E-05
-4.04517E-05
-5.63973E-05
-6.39506E-05
-6.49577E-05
-5.92508E-05
-4.98512E-05
-5.58938E-05
-7.40215E-05
-8.76173E-05
-0.000105913
-0.000130083
-0.000138308
-0.000119677
-6.93217E-05
8.56031E-06
8.94636E-05
0.000145861
0.000161975
0.000126055
6.02579E-05
1.1078E-05
-1.2253E-05
-2.3331E-05
-3.65911E-05
-5.15297E-05
-4.09552E-05
1.19173E-05
9.11421E-05
0.000174731
0.000249928
0.00029659
0.000303304
0.000291554
0.000271748
0.00023415
0.000187823
0.000161471
0.000149386
0.000117327
4.95155E-05
-3.57519E-05
-0.000114137
-0.000165499
-0.000172045
-0.000153918
-0.00014905
-0.000150561
-0.000127901
-8.69459E-05
-4.448E-05
-9.06386E-06
-2.68559E-06
4.69978E-06
2.93736E-05
4.75013E-05
6.19364E-05
6.69719E-05
4.46479E-05
3.35698E-06
-1.76242E-05
1.02388E-05
7.45251E-05
0.000145693
0.000194202
0.000187823
0.000153246
0.000132433
0.000117998
9.65133E-05
6.8986E-05
4.14588E-05
1.19173E-05
-1.62814E-05
-3.84375E-05
-5.92508E-05
-6.27756E-05
-3.42412E-05
2.51774E-05
9.88632E-05
0.0001608
0.000198062
0.000205615
0.000158282
6.36149E-05
-3.77661E-05
-0.000126894
-0.000210315
-0.000278798
-0.000305486
-0.000289876
-0.000245228
-0.000182956
-0.000109438
-3.82696E-05
2.4506E-05
7.97284E-05
0.000127398
0.00017171
0.000192187
0.000171542
0.00012639
8.15747E-05
4.11231E-05
1.51064E-06
-4.09552E-05
-8.25818E-05
-0.000109438
-0.000102724
-6.66362E-05
-2.4506E-05
2.56809E-05
8.71138E-05
0.000145525
0.00019588
0.000233814
0.000250431
0.000240192
0.000191516
0.000114473
3.6759E-05
-2.90379E-05
-7.87213E-05
-0.00011783
-0.000148547
-0.000164324
-0.000168688
-0.000167681
-0.000158282
-0.000148714
-0.000142504
-0.00013344
-0.000124208
-0.000118669
-0.000129747
-0.000149554
-0.000155428
-0.000145357
-0.000131762
-0.000121355
-0.000113634
-0.00010457
-9.97024E-05
-9.71847E-05
-0.000100206
-0.000112627
-0.000125383
-0.00013109
-0.000114809
-6.94896E-05
1.84634E-06
9.11421E-05
0.000157946
0.000186816
0.000197894
0.000219211
0.000252277
0.000277455
0.000298939
0.000315389
0.000325795
0.000333516
0.000343587
0.00034023
0.00031136
0.000266712
0.000214008
0.000160296
0.000110277
6.56291E-05
2.3331E-05
-2.23239E-05
-6.39506E-05
-9.11421E-05
-0.00011397
-0.000134112
-0.000139315
-0.00013814
-0.000152407
-0.00015375
-0.000119677
-7.43572E-05
-3.77661E-05
-8.89601E-06
2.6688E-05
6.94896E-05
0.000107256
0.000125048
0.00011162
4.53193E-05
-7.08324E-05
-0.000199908
-0.000310185
-0.000399985
-0.000480552
-0.000538628
-0.000542992
-0.000479881
-0.000369268
-0.000252781
-0.000129747
6.37827E-06
0.000116655
0.000210651
0.000323445
0.00044564
0.000536278
0.000573541
0.000582605
0.000577234
0.000559777
0.000532586
0.000489281
0.000396963
0.000249592
0.000110948
2.40024E-05
-3.52483E-05
-9.14778E-05
-0.000129412
-0.000158618
-0.000181949
-0.000181781
-0.000156771
-0.00011397
-4.58228E-05
2.93736E-05
8.44282E-05
0.000120012
0.000142
0.000154757
0.000165331
0.000152911
0.000105913
4.39765E-05
-2.31632E-05
-9.03029E-05
-0.000144518
-0.000184131
-0.00021619
-0.000232639
-0.000219715
-0.000189502
-0.000164157
-0.00014049
-0.000104402
-6.09293E-05
-5.1194E-05
-8.50996E-05
-0.000135454
-0.000210483
-0.000288533
-0.000343587
-0.000370779
-0.00034963
-0.000266041
-0.000136461
2.51774E-06
0.000124712
0.000222065
0.000284169
0.000324788
0.000366247
0.00040737
0.000397803
0.000312535
0.000190509
6.79789E-05
-3.77661E-05
-0.000135622
-0.000222568
-0.000269398
-0.000264027
-0.000205951
-0.00011783
-3.77661E-05
1.84634E-05
7.03288E-05
0.000127398
0.00018027
0.000222736
0.000254963
0.000248585
0.000179767
8.30854E-05
-2.61845E-05
-0.000155932
-0.000275273
-0.000333852
-0.000322271
-0.00026302
-0.00017406
-6.8986E-05
3.69268E-05
0.000122698
0.000179767
0.000213336
0.000244556
0.000298939
0.000378836
0.000448325
0.00047451
0.000429191
0.000305821
0.000151568
7.21752E-06
-0.000111284
-0.000191684
-0.000234653
-0.000270909
-0.000318578
-0.000348119
-0.000345937
-0.000328817
-0.000298772
-0.000247913
-0.00016466
-3.32342E-05
0.000125216
0.000273762
0.000389075
0.000439933
0.00040972
0.000346105
0.000288533
0.000221729
0.000158282
0.000105745
4.28016E-05
-2.56809E-05
-8.54353E-05
-0.000132601
-0.000157946
-0.0001467
-0.000112459
-0.00010222
-0.000134112
-0.000170367
-0.000180774
-0.000166674
-0.000142
-9.8024E-05
-3.17235E-05
4.48157E-05
0.000122362
0.000174395
0.000183627
0.000149218
7.9057E-05
-1.51064E-06
-7.87213E-05
-0.000137469
-0.000164492
-0.000170535
-0.000173556
-0.000167849
-0.000156603
-0.000146365
-0.000117159
-5.25368E-05
3.40734E-05
0.000120012
0.000193866
0.000258991
0.000328145
0.000389242
0.000418784
0.000408713
0.000352819
0.000266041
0.000144686
-4.28016E-05
-0.000256977
-0.000432548
-0.000549371
-0.0006009
-0.000578073
-0.000488273
-0.000376654
-0.000286015
-0.000227939
-0.000194202
-0.000123705
-1.76242E-05
6.16007E-05
0.000115312
0.000169024
0.000208637
0.000214343
0.000179431
0.000153582
0.000183627
0.000265537
0.000382528
0.000507408
0.000596033
0.00064387
0.000659144
0.000624903
0.000554406
0.00047451
0.00035668
0.000195544
3.77661E-05
-9.95346E-05
-0.000235157
-0.000349294
-0.000413413
-0.000432883
-0.000418112
-0.000370947
-0.000295079
-0.000203937
-0.000109102
3.86053E-06
0.000126055
0.000216861
0.000254963
0.000241871
0.000193194
0.000123369
1.67849E-05
-0.00011548
-0.000240024
-0.00036524
-0.000494652
-0.000610132
-0.000667201
-0.000653269
-0.000609293
-0.000574044
-0.000520501
-0.000416266
-0.000258656
-4.80049E-05
0.000217365
0.000500694
0.000726284
0.000857877
0.000898161
0.00086392
0.000760525
0.00061651
0.000491295
0.000399985
0.00031606
0.000236667
0.000174395
0.00012874
8.84565E-05
4.448E-05
-1.02388E-05
-5.7908E-05
-0.000101213
-0.000159625
-0.000231464
-0.000286351
-0.000314046
-0.000324788
-0.000315557
-0.000295583
-0.000282322
-0.000267048
-0.000248585
-0.000219043
-0.000176242
-0.000150561
-0.000162478
-0.00019823
-0.000231464
-0.000235996
-0.000225757
-0.000220386
-0.000210147
-0.000176074
-9.78561E-05
1.05745E-05
0.000105913
0.000163653
0.000198901
0.00022005
0.000205951
0.000164996
0.000116991
6.07614E-05
-1.67849E-07
-4.31373E-05
-5.25368E-05
-2.51774E-05
4.0116E-05
0.000121355
0.000206287
0.000310689
0.000425162
0.000502037
0.000504387
0.000451011
0.000365072
0.000249928
0.000110781
-2.29953E-05
-0.000120012
-0.000184131
-0.000227939
-0.000247745
-0.000241199
-0.000192187
-0.00010222
-2.24918E-05
1.12459E-05
2.26596E-05
1.02388E-05
-2.90379E-05
-7.0161E-05
-9.70169E-05
-0.000105241
-8.84565E-05
-4.24659E-05
2.19882E-05
9.08064E-05
0.000152239
0.000205951
0.000224079
0.000190509
0.000123369
3.86053E-05
-4.54871E-05
-0.00012488
-0.00022475
-0.000335027
-0.000393271
-0.000371954
-0.000298939
-0.000204776
-0.000100877
5.03548E-06
0.000108598
0.000193194
0.000244221
0.000277791
0.00032546
0.000332845
0.00025362
0.000130251
2.3331E-05
-8.5771E-05
-0.000237171
-0.0003832
-0.000438254
-0.000402838
-0.00032546
-0.000204944
-3.18914E-05
0.000157946
0.000332174
0.000479042
0.000602747
0.000704799
0.000768582
0.000740383
0.000619196
0.000451011
0.000232471
-3.86053E-06
-0.000189166
-0.000296422
-0.000345602
-0.000351644
-0.000319753
-0.000269062
-0.000208301
-0.000130083
-3.70947E-05
5.15297E-05
0.00010222
8.76173E-05
2.18204E-06
-0.000124041
-0.000230289
-0.000296086
-0.000342077
-0.000375311
-0.000392096
-0.000416098
-0.000428183
-0.000382193
-0.000260838
-7.78821E-05
0.000110613
0.000255634
0.000366079
0.000451011
0.000501366
0.000500694
0.000474846
0.000438254
0.000389242
0.000320088
0.000223072
9.81918E-05
-5.53903E-05
-0.000207797
-0.000303975
-0.000318074
-0.00028098
-0.000219715
-0.000135958
-5.06905E-05
2.60166E-05
8.84565E-05
0.000133944
0.00017171
0.000198901
0.000208972
0.000198566
0.000158282
8.87922E-05
1.42672E-05
-4.58228E-05
-9.24849E-05
-0.00013193
-0.00014905
-0.000124041
-7.67071E-05
-3.20592E-05
5.53902E-06
-4.53193E-06
-9.98703E-05
-0.000235325
-0.000349126
-0.000420295
-0.000442283
-0.000403342
-0.000333181
-0.000272587
-0.00020293
-0.000120012
-4.28016E-05
4.14588E-05
0.000144015
0.000247578
0.000334188
0.000393942
0.000422812
0.000424826
0.000406531
0.0003832
0.000371786
0.000363058
0.000359533
0.000365744
0.00034493
0.000273594
0.000162646
3.84375E-05
-6.4622E-05
-0.000127733
-0.00014519
-0.000129076
-0.000111284
-0.00010222
-8.84565E-05
-8.91279E-05
-0.000140658
-0.000247578
-0.000350301
-0.000428855
-0.000478706
-0.000471656
-0.000405859
-0.000277791
-9.14778E-05
5.58938E-05
0.000113466
0.000125383
0.000127398
0.000135454
0.000146029
0.000139147
8.37568E-05
-2.75273E-05
-0.000125048
-0.000165331
-0.000170031
-0.000163989
-0.000151568
-0.000117998
-4.48157E-05
5.74044E-05
0.000169024
0.000284504
0.000397971
0.000472496
0.000490959
0.000496666
0.000513451
0.000500694
0.000434897
0.000344259
0.000223911
4.61585E-05
-0.000144183
-0.000259327
-0.000289204
-0.000263355
-0.000204273
-0.000133776
-6.24399E-05
7.04967E-06
6.19364E-05
9.58419E-05
0.000113634
0.000111284
9.41634E-05
6.05936E-05
-7.04967E-06
-8.81208E-05
-0.000151232
-0.000199573
-0.000221057
-0.000206958
-0.000173388
-0.000133608
-0.00010927
-8.56031E-05
-9.75204E-05
-0.000204273
-0.000340902
-0.00043003
-0.000444297
-0.000378668
-0.000240528
-8.14069E-05
6.74754E-05
0.000200916
0.000302968
0.000372793
0.000441276
0.000512779
0.000544335
0.000518151
0.000463767
0.000368093
0.000204608
2.56809E-05
-0.000121187
-0.00024741
-0.000339223
-0.00035433
-0.000270909
-0.000121355
1.91348E-05
0.000108598
0.000153582
0.000179767
0.00020058
0.000201251
0.000175738
0.000142
0.000109941
8.84565E-05
7.97284E-05
7.50286E-05
6.76432E-05
5.52224E-05
4.86763E-05
6.16007E-05
9.38277E-05
0.00010457
2.87022E-05
-0.000166003
-0.000419623
-0.000635477
-0.000760357
-0.000792584
-0.000748104
-0.000632792
-0.00044715
-0.000209308
4.63264E-05
0.000274769
0.000441947
0.000570352
0.000685328
0.000771939
0.000767239
0.000644373
0.000450675
0.00023415
1.39315E-05
-0.000183963
-0.000317067
-0.000350805
-0.000302464
-0.00020763
-8.94636E-05
2.93736E-05
0.000121355
0.000181781
0.000217029
0.000239353
0.000234821
0.000169024
4.41443E-05
-8.76173E-05
-0.000165835
-0.000188159
-0.000181949
-0.00015761
-0.000114137
-6.26078E-05
-7.55322E-06
4.81727E-05
7.50286E-05
6.8986E-05
2.6688E-05
-5.42153E-05
-0.000158618
-0.000275776
-0.000368261
-0.000411063
-0.000412909
-0.000386389
-0.000308507
-0.000160632
3.44091E-05
0.000233478
0.000391928
0.000504723
0.000589319
0.000652094
0.000667872
0.000608789
0.000481224
0.00032311
0.000150729
-2.09812E-05
-0.000159289
-0.000245396
-0.000273594
-0.000263188
-0.000250599
-0.000239521
-0.000210651
-0.000158953
-9.11421E-05
-9.23171E-06
7.53643E-05
0.000136126
0.000156939
0.000145861
0.000110613
4.71656E-05
-3.08843E-05
-9.24849E-05
-0.000135454
-0.000161303
-0.000240192
-0.000417105
-0.000618189
-0.000732998
-0.000737194
-0.000660319
-0.000518822
-0.000312535
-7.9057E-05
0.000125719
0.000306493
0.000500023
0.000678614
0.000792081
0.000847807
0.000879026
0.000869291
0.000769085
0.000576898
0.00034728
0.00013193
-5.1194E-05
-0.000210483
-0.000315389
-0.000359701
-0.000388067
-0.000415427
-0.00042298
-0.000393271
-0.000340734
-0.000305989
-0.000262684
-0.000180438
-8.40925E-05
1.67849E-07
7.67071E-05
0.000168017
0.000276448
0.000353994
0.000374807
0.000338216
0.000276112
0.000222065
9.48348E-05
-0.000125048
-0.000318578
-0.000415091
-0.000433051
-0.000400488
-0.00034258
-0.000277119
-0.000165164
3.86053E-06
0.00020444
0.000418784
0.000618189
0.000761196
0.000826993
0.000822629
0.000738369
0.000581933
0.000408042
0.000267384
0.000147875
1.17494E-05
-0.000124208
-0.00021149
-0.000251606
-0.000271748
-0.00026772
-0.000252277
-0.000263691
-0.000330495
-0.000411399
-0.000471153
-0.000514122
-0.000543328
-0.000536614
-0.000467628
-0.000350134
-0.0002177
-0.000105241
-9.06386E-06
0.000101045
0.000229786
0.000332845
0.000363058
0.000351308
0.00031136
0.000216358
6.07614E-05
-9.6849E-05
-0.000222065
-0.000313375
-0.000350301
-0.000306828
-0.000216693
-0.000150561
-8.84565E-05
2.09812E-05
0.000175067
0.000332845
0.000456382
0.00053225
0.000551049
0.00050808
0.000418784
0.000302296
0.000180438
8.62745E-05
3.47448E-05
1.12459E-05
-3.35698E-06
-2.26596E-05
-5.32082E-05
-7.80499E-05
-0.00010222
-0.00016936
-0.000244892
-0.000290379
-0.000306325
-0.000293568
-0.000244892
-0.000166674
-8.27497E-05
-7.04967E-06
7.21752E-05
0.000169528
0.000271077
0.000309682
0.000240024
9.71847E-05
-5.05226E-05
-0.000165667
-0.000261341
-0.000329824
-0.000335363
-0.00027628
-0.000188495
-8.69459E-05
4.76692E-05
0.000203601
0.000336873
0.000419455
0.000451011
0.000410391
0.000239857
-6.41184E-05
-0.000368765
-0.000577401
-0.000686503
-0.000704967
-0.000617685
-0.000415259
-0.000143511
0.000115648
0.000315389
0.000466285
0.000575555
0.000643702
0.000688518
0.000732662
0.000770596
0.000757168
0.000644373
0.000452354
0.000246571
6.24399E-05
-7.3518E-05
-0.000151064
-0.000187488
-0.00018967
-0.000170031
-0.000163989
-0.000176242
-0.000183963
-0.000185977
-0.000193194
-0.000223407
-0.000281147
-0.000349798
-0.00042063
-0.000463264
-0.000477867
-0.000540475
-0.000666697
-0.000797955
-0.000853681
-0.000792248
-0.000641688
-0.000442283
-0.000192691
0.000115312
0.000435569
0.000738369
0.000997528
0.001181491
0.001281529
0.001331884
0.001327855
0.001213382
0.000979736
0.000671229
0.000351644
7.55322E-05
-0.000112963
-0.000212329
-0.000262181
-0.00029659
-0.000324956
-0.000360876
-0.000449165
-0.000566659
-0.000656626
-0.000694057
-0.000678782
-0.000625238
-0.00054786
-0.000436744
-0.000295415
-0.000151904
-1.62814E-05
0.000112123
0.000225422
0.000330159
0.000435904
0.000531579
0.000581262
0.000550378
0.000462425
0.000346609
0.000203265
4.58228E-05
-9.71847E-05
-0.000195209
-0.000250095
-0.000271244
-0.000304814
-0.000394278
-0.000473503
-0.000477363
-0.000397971
-0.00026067
-8.67781E-05
8.71138E-05
0.000214511
0.000297765
0.000332845
0.000291554
0.000220722
0.000197894
0.000223407
0.000242039
0.000203098
0.000113298
2.29953E-05
-3.10521E-05
-4.54871E-05
-3.91089E-05
-3.10521E-05
-1.69528E-05
3.23949E-05
0.000120516
0.000174899
0.000128069
-3.35698E-06
-0.000161639
-0.000310185
-0.000428016
-0.000490623
-0.000489281
-0.000444633
-0.000351812
-0.000192523
1.17494E-06
0.000197223
0.000391928
0.000558434
0.00068365
0.000762539
0.000778653
0.000710842
0.000561791
0.000372122
0.000173053
-4.86763E-06
-0.00012639
-0.000192859
-0.000225589
-0.000232471
-0.000217533
-0.000194202
-0.000188159
-0.000203769
-0.000216526
-0.000211994
-0.000187823
-0.00016701
-0.000179095
-0.000225925
-0.000291722
-0.000358022
-0.00040267
-0.000431205
-0.000443793
-0.000423819
-0.000351476
-0.000209308
-1.57778E-05
0.000191852
0.000383536
0.00053225
0.000601404
0.00059234
0.000533593
0.000454032
0.000371115
0.000293904
0.000237339
0.000194202
0.00013344
5.52224E-05
-5.15297E-05
-0.000189837
-0.000326635
-0.000431037
-0.000497673
-0.000554238
-0.000578241
-0.000509255
-0.000338888
-0.000115145
0.00011632
0.000328817
0.000517815
0.000663172
0.000729641
0.000712184
0.000639673
0.00052285
0.000379843
0.000233143
9.91989E-05
-4.53193E-06
-7.28466E-05
-0.000118334
-0.000146365
-0.000166171
-0.000194873
-0.000223743
-0.000233143
-0.000221561
-0.000195544
-0.000165331
-0.000132937
-0.000102724
-6.91539E-05
-3.37377E-05
-8.87922E-05
-0.000269734
-0.000490959
-0.000691371
-0.000822461
-0.000859052
-0.000810544
-0.000694896
-0.000521172
-0.000277623
4.02838E-06
0.000272419
0.000523522
0.000775631
0.001016327
0.001213718
0.001299321
0.001215732
0.001001556
0.000735683
0.000455039
0.000181109
-3.39055E-05
-0.000138643
-0.000146365
-0.00012958
-0.000125551
-0.000121019
-0.000103563
-6.78111E-05
-1.76242E-05
4.07874E-05
8.50996E-05
8.5771E-05
4.04517E-05
-3.81018E-05
-0.000142168
-0.000262348
-0.000385214
-0.000505226
-0.000597711
-0.000624063
-0.000570184
-0.000442283
-0.000268559
-9.81918E-05
4.59907E-05
0.000150896
0.000212665
0.000259831
0.000301289
0.000322103
0.000317403
0.000302464
0.000282155
0.0002224
9.43313E-05
-7.18395E-05
-0.000206958
-0.000302464
-0.0003785
-0.000401831
-0.000322271
-0.000162142
7.88891E-06
0.000152239
0.000271077
0.000353658
0.000398978
0.000402502
0.000370443
0.000319417
0.000266712
0.000227268
0.000203937
0.000189837
0.00016466
0.000111955
3.47448E-05
-4.75013E-05
-0.000112291
-0.000152575
-0.000179095
-0.000193866
-0.000191852
-0.00017171
-0.000136126
-0.000100206
-7.88891E-05
-7.97284E-05
-9.28206E-05
-9.3492E-05
-9.75204E-05
-0.000129412
-0.000175738
-0.000222736
-0.000288029
-0.000361547
-0.000415259
-0.000429526
-0.000406867
-0.000359869
-0.000302296
-0.000223407
-0.000102556
1.62814E-05
8.81208E-05
0.000145861
0.000227436
0.000345602
0.000477699
0.000582605
0.000633631
0.000624231
0.000576898
0.000495155
0.000372793
0.000210315
5.42153E-05
-5.97543E-05
-0.000126726
-0.000150729
-0.000146868
-0.000123705
-9.41634E-05
-7.40215E-05
-5.2369E-05
-5.53902E-06
8.50996E-05
0.000187152
0.000251942
0.000271748
0.000247913
0.000189837
0.000126726
8.20783E-05
5.89151E-05
4.38086E-05
9.39956E-06
-6.37827E-05
-0.000175067
-0.000318578
-0.000455879
-0.000535607
-0.000556924
-0.000537453
-0.00047837
-0.000370443
-0.000223239
-5.92508E-05
9.31563E-05
0.000222736
0.000346105
0.000458396
0.00054081
0.000579919
0.00056582
0.000493645
0.000351644
0.000152743
-3.18914E-05
-0.000183124
-0.000307332
-0.000368429
-0.000340734
-0.000244388
-0.000116991
-5.20333E-06
4.93477E-05
4.04517E-05
2.34989E-06
-3.40734E-05
-0.000103899
-0.000194705
-0.000256306
-0.000290883
-0.000306325
-0.000279469
-0.00020293
-0.000108934
-1.35958E-05
9.76883E-05
0.00023801
0.000385885
0.000508919
0.000589822
0.000627588
0.000613489
0.000530571
0.000404013
0.000260166
0.000122026
3.69268E-06
-7.93927E-05
-0.000129076
-0.000153414
-0.000152071
-0.000129412
-0.000101717
-8.84565E-05
-9.55062E-05
-0.000110948
-0.000102892
-5.82437E-05
-1.14137E-05
-2.97093E-05
-0.000158282
-0.000347951
-0.000484245
-0.000521508
-0.000490791
-0.00044715
-0.000375479
-0.000245899
-9.11421E-05
6.39506E-05
0.00022005
0.000376822
0.000511437
0.000595361
0.000606104
0.000550378
0.000461753
0.000365744
0.000250599
8.96315E-05
-0.000115984
-0.000326299
-0.000521675
-0.000690196
-0.000794095
-0.000771435
-0.000621042
-0.000408377
-0.00018027
6.22721E-05
0.000304646
0.00050724
0.000640345
0.000697414
0.000673915
0.000586969
0.000441947
0.000267048
9.71847E-05
-7.0161E-05
-0.000239353
-0.000369436
-0.000423819
-0.000391928
-0.000293736
-0.000166003
-3.18914E-05
0.000101884
0.000221393
0.000317067
0.000399985
0.000445304
0.000451011
0.000440269
0.00039025
0.000307332
0.000200916
7.06645E-05
-6.86503E-05
-0.000203937
-0.00030985
-0.000361044
-0.00036054
-0.000343252
-0.000320424
-0.000265705
-0.000172717
-6.81468E-05
2.83665E-05
0.000103395
0.000136797
0.000127398
9.91989E-05
4.54871E-05
-5.69009E-05
-0.000174899
-0.000266712
-0.000299779
-0.000271412
-0.000191684
-6.66362E-05
7.41894E-05
0.000188495
0.000259663
0.000277791
0.000248585
0.000213672
0.000211994
0.000238849
0.000252277
0.000219883
0.000143511
5.00191E-05
-2.73594E-05
-7.3518E-05
-8.14069E-05
-5.05226E-05
-2.85344E-06
3.40734E-05
4.86763E-05
2.70237E-05
-4.51514E-05
-0.000143679
-0.000224079
-0.000290379
-0.000354498
-0.00040116
-0.000403174
-0.000349294
-0.000251942
-0.000128573
4.53193E-06
0.000133272
0.000256306
0.000364233
0.000443458
0.000494652
0.000519493
0.000488609
0.000380011
0.000192355
-6.04257E-06
-0.000164492
-0.000297932
-0.00038471
-0.000411063
-0.000401831
-0.000356847
-0.000273091
-0.000179095
-8.67781E-05
3.86053E-06
9.71847E-05
0.000203937
0.00031371
0.000391928
0.00042063
0.00041207
0.000396292
0.000376989
0.000324453
0.000221225
7.77142E-05
-5.50546E-05
-0.000146365
-0.000197559
-0.000219547
-0.000232136
-0.000236835
-0.000222232
-0.000183963
-0.000127565
-6.91539E-05
-1.561E-05
3.39055E-05
7.36858E-05
5.22011E-05
-3.52483E-05
-0.000149554
-0.00026067
-0.000361883
-0.000437751
-0.000458732
-0.000415091
-0.000323445
-0.000223407
-0.000149218
-9.43313E-05
-2.97093E-05
7.73785E-05
0.000221393
0.000352316
0.000440269
0.000487938
0.000476524
0.000406363
0.000302632
0.000193194
0.000103563
7.20073E-05
0.000103227
0.000159625
0.000194202
0.00019118
0.000170367
0.000156939
0.000140826
9.78561E-05
5.4551E-05
3.07164E-05
5.03548E-06
-1.98062E-05
-5.28725E-05
-8.47639E-05
-0.000112459
-0.000146868
-0.000161471
-0.000131426
-6.56291E-05
1.71206E-05
8.5771E-05
0.000104402
0.000103395
0.000110948
0.000114641
0.000106584
8.84565E-05
5.82437E-05
1.05745E-05
-3.60876E-05
-5.01869E-05
-4.14588E-05
-2.03098E-05
4.17945E-05
0.000126726
0.000122026
-1.84634E-06
-0.000166171
-0.000325124
-0.000455039
-0.000530236
-0.000590326
-0.000632792
-0.000602747
-0.000493141
-0.000329992
-0.000114641
0.000137133
0.000379843
0.000577905
0.000706142
0.000753811
0.000711513
0.000606775
0.000510597
0.000457389
0.00040737
0.000334859
0.000248585
0.000148882
2.75273E-05
-0.000119005
-0.000280812
-0.000391257
-0.00041677
-0.000396124
-0.000347616
-0.000252613
-0.000119173
1.37636E-05
0.00010927
0.000144183
0.000134615
0.000130922
0.000136126
0.000125719
0.000112627
0.000106416
4.64942E-05
-0.000108263
-0.00029659
-0.000452186
-0.000561791
-0.000625238
-0.000618189
-0.000519997
-0.00036054
-0.000198566
-5.32082E-05
9.21492E-05
0.000254292
0.000425162
0.000582269
0.000715541
0.000797452
0.000775967
0.000649073
0.000476356
0.000300282
0.000121355
-3.62554E-05
-0.00014435
-0.000200244
-0.000207126
-0.000190005
-0.00017641
-0.000159625
-0.000132097
-0.000103563
-8.50996E-05
-7.60357E-05
-7.46929E-05
-7.82178E-05
-7.77142E-05
-7.40215E-05
-8.87922E-05
-0.000164157
-0.000295918
-0.000418448
-0.000468635
-0.000457893
-0.000417441
-0.00034728
-0.00025127
-0.000126726
1.72885E-05
0.000170703
0.000325124
0.000455711
0.000546014
0.000596033
0.000606775
0.000567834
0.000476188
0.000330831
0.000159625
-4.02838E-06
-0.000161975
-0.000336538
-0.000498848
-0.000590158
-0.000586801
-0.000497169
-0.000359365
-0.000210986
-4.14588E-05
0.00016466
0.000372793
0.00053695
0.000644373
0.000693385
0.000665187
0.000553063
0.000382528
0.000177752
-4.19623E-05
-0.000230625
-0.000341238
-0.000365408
-0.000330831
-0.000253956
-0.000135119
1.05745E-05
0.000138476
0.000217029
0.00025832
0.000272419
0.000251606
0.000188327
9.24849E-05
1.24208E-05
-2.13169E-05
-3.23949E-05
-4.98512E-05
-9.3492E-05
-0.00014519
-0.000192859
-0.000230793
-0.000237003
-0.000228611
-0.000209644
-0.000172381
-0.00011632
-4.64942E-05
1.99741E-05
6.6804E-05
0.000105241
0.000145861
0.000178256
0.000175067
0.000107088
5.87472E-06
-6.56291E-05
-7.43572E-05
-3.44091E-05
-5.20333E-06
-3.37377E-05
-0.000100877
-0.000166339
-0.000219379
-0.000257984
-0.000262852
-0.000227771
-0.000153918
-5.99222E-05
2.40024E-05
0.000110613
0.000187823
0.000230121
0.000257649
0.000278798
0.000273762
0.000232639
0.000169696
0.000134112
0.000138643
0.000130755
5.89151E-05
-6.88182E-05
-0.000195377
-0.000291218
-0.000346441
-0.000358526
-0.000323949
-0.000252949
-0.000154253
-2.63523E-05
0.000123369
0.000270573
0.000384543
0.000453025
0.000468467
0.000428016
0.000349966
0.000234653
8.64424E-05
-5.52224E-05
-0.000168521
-0.000253117
-0.000286686
-0.000261677
-0.00019353
-0.00011162
-2.58488E-05
6.24399E-05
0.000144518
0.000173724
0.000110613
-5.03548E-07
-0.000118334
-0.000242542
-0.000356512
-0.000406363
-0.000350469
-0.000210483
-2.4506E-05
0.000186145
0.000384543
0.000548363
0.000669215
0.000731655
0.000724941
0.000637659
0.000458228
0.000229953
3.70947E-05
-7.73785E-05
-0.000144183
-0.000202258
-0.000250431
-0.000252277
-0.000194202
-0.00011632
-6.54612E-05
-5.06905E-05
-5.38796E-05
-6.73075E-05
-8.74495E-05
-0.000105745
-0.000103059
-7.83856E-05
-6.88182E-05
-9.28206E-05
-0.000159289
-0.000243885
-0.000308339
-0.000350301
-0.000363897
-0.000340566
-0.00028014
-0.000190677
-9.50027E-05
-1.35958E-05
5.48867E-05
0.000125551
0.000198398
0.000253284
0.000276448
0.000259998
0.000211322
0.00013344
3.6759E-05
-6.22721E-05
-0.000155428
-0.000209308
-0.000204105
-0.000159121
-9.03029E-05
-1.71206E-05
2.83665E-05
3.13878E-05
4.86763E-06
-2.16526E-05
-1.8967E-05
3.08843E-05
9.51705E-05
0.000137469
0.000179599
0.000231464
0.000276112
0.000305989
0.000323781
0.000321431
0.000312032
0.000307332
0.000290883
0.000243549
0.000166674
8.03998E-05
1.0071E-05
-5.53903E-05
-0.000137469
-0.00023801
-0.000355673
-0.000456046
-0.000518151
-0.000561959
-0.0006009
-0.000600229
-0.000557931
-0.000519158
-0.000478538
-0.000380346
-0.000215518
-2.73594E-05
0.000175738
0.000397971
0.00062826
0.000851163
0.001037812
0.001147585
0.001146578
0.001038819
0.000853178
0.000622889
0.000368765
0.000122362
-7.43572E-05
-0.000195041
-0.000253788
-0.000280308
-0.000290547
-0.000269062
-0.000209308
-0.000139315
-9.97024E-05
-9.85275E-05
-0.000129076
-0.000181445
-0.00022945
-0.00024741
-0.000228443
-0.00018967
-0.000142168
-8.67781E-05
-3.87732E-05
-2.16526E-05
-4.64942E-05
-9.44991E-05
-0.000148043
-0.000228611
-0.000302968
-0.000321263
-0.000290547
-0.000229114
-0.000143343
-3.10521E-05
8.91279E-05
0.000185977
0.000215183
0.00015996
6.94896E-05
-8.89601E-06
-6.1265E-05
-9.6849E-05
-0.000115984
-0.000125048
-0.000122698
-0.000105241
-6.63005E-05
-6.88182E-06
5.89151E-05
0.000130587
0.000201251
0.000261341
0.000323781
0.000376989
0.000391424
0.000357015
0.000279133
0.000158785
2.51774E-06
-0.000147036
-0.000244221
-0.000267384
-0.000221729
-0.000137133
-4.28016E-05
3.74304E-05
8.87922E-05
0.000114977
0.000131426
0.000157946
0.000206287
0.000254627
0.000267048
0.000210986
7.16716E-05
-0.000123201
-0.000330495
-0.000506233
-0.000633295
-0.000696574
-0.000682139
-0.00059704
-0.000448493
-0.000240696
1.35958E-05
0.000291218
0.00056112
0.000785367
0.000926024
0.00096228
0.000883391
0.000705135
0.000461082
0.000202594
5.03548E-07
-0.000117494
-0.000197894
-0.000261341
-0.000267216
-0.000209812
-0.000124712
-3.70947E-05
3.07164E-05
6.66362E-05
7.67071E-05
7.63714E-05
8.25818E-05
8.42603E-05
5.05226E-05
-1.69528E-05
-8.64424E-05
-0.000141329
-0.000183795
-0.000215183
-0.000241535
-0.00026688
-0.000289372
-0.000297093
-0.000269062
-0.000225757
-0.00023331
-0.00028249
-0.000293904
-0.000244556
-0.000172549
-9.38277E-05
-9.90311E-06
8.03998E-05
0.00017171
0.000246235
0.000285512
0.000283665
0.000260334
0.000235157
0.000214679
0.000206287
0.000187823
0.000144854
0.000102556
7.9057E-05
6.32792E-05
2.76951E-05
-7.55322E-06
5.03548E-07
5.58938E-05
0.00013814
0.000219379
0.000267048
0.000269062
0.000227436
0.000130083
-3.94446E-05
-0.000224414
-0.000355337
-0.000422141
-0.000441611
-0.000423819
-0.000363561
-0.000264866
-0.000151064
-1.57778E-05
0.000136797
0.000255634
0.000316396
0.000334188
0.000294911
0.000203265
0.000102556
2.36667E-05
-2.83665E-05
-5.62295E-05
-5.35439E-05
-7.55322E-06
6.4622E-05
0.000129747
0.000173892
0.00019823
0.000168688
7.77142E-05
-3.32342E-05
-0.000117494
-0.000158282
-0.000155932
-0.000166674
-0.000216526
-0.000288029
-0.000363394
-0.000418952
-0.000444633
-0.000413413
-0.000259495
3.86053E-06
0.000284504
0.000518151
0.000674586
0.000745754
0.000741726
0.000675929
0.000562799
0.000419791
0.000257649
9.91989E-05
-3.23949E-05
-0.000139315
-0.000232807
-0.000294575
-0.000300618
-0.000252277
-0.0001608
-6.36149E-05
-4.53193E-06
1.7792E-05
2.40024E-05
2.60166E-05
2.63523E-05
2.29953E-05
1.46029E-05
-2.63523E-05
-0.00010692
-0.000191684
-0.000267552
-0.000318578
-0.000319753
-0.000277958
-0.000213001
-0.000139818
-6.32792E-05
1.46029E-05
8.2414E-05
0.000155596
0.000248585
0.000321431
0.000343587
0.000334524
0.000291218
0.000204944
9.75204E-05
-2.18204E-06
-0.000101549
-0.000207965
-0.000281819
-0.000288029
-0.000232975
-0.000133104
6.37827E-06
0.000147539
0.000249592
0.00030515
0.000314046
0.000269734
0.000169696
2.98772E-05
-0.000116655
-0.000229953
-0.00028333
-0.000275105
-0.000219211
-0.000141497
-6.05936E-05
1.64492E-05
7.83856E-05
0.000124544
0.00016701
0.000199573
0.000211658
0.000194202
0.000155093
8.03998E-05
-2.65202E-05
-0.000139147
-0.000228107
-0.000295415
-0.000354498
-0.000386892
-0.000351308
-0.000257984
-0.000137972
-2.03098E-05
7.26787E-05
0.000143343
0.000190173
0.000182116
0.00012874
7.13359E-05
4.66621E-05
5.74044E-05
9.91989E-05
0.000169024
0.000242206
0.000270237
0.000249592
0.000232807
0.000253452
0.000267048
0.000237171
0.000177081
0.000102724
2.87022E-05
-3.79339E-05
-9.58419E-05
-0.000139147
-0.000167681
-0.000172549
-0.000170703
-0.000177584
-0.000178424
-0.000203937
-0.000297429
-0.000447318
-0.000611978
-0.000750286
-0.00081323
-0.000782513
-0.000671397
-0.00047451
-0.000185473
0.00016701
0.000505394
0.000773281
0.000963287
0.001104951
0.001213046
0.001263401
0.00120969
0.001039826
0.000803494
0.000553735
0.000304311
5.55581E-05
-0.00017171
-0.000323445
-0.000392432
-0.000408545
-0.000430198
-0.00047602
-0.000504555
-0.000490455
-0.000432883
-0.000343252
-0.000256641
-0.000191348
-0.000130922
-5.38796E-05
4.448E-05
0.000149218
0.000223072
0.000252277
0.000233478
0.000167681
6.63005E-05
-3.20592E-05
-9.31563E-05
-0.00013109
-0.000155596
-0.000163317
-0.000152239
-0.000124376
-7.63714E-05
-8.56031E-06
5.95865E-05
0.000106081
0.00012874
0.000138811
0.000148547
0.000169024
0.000187655
0.000177752
8.91279E-05
-8.67781E-05
-0.000282322
-0.000477531
-0.000674418
-0.000834882
-0.000886915
-0.000793927
-0.000595361
-0.000352483
-8.91279E-05
0.000169024
0.000401999
0.000608118
0.000785367
0.000919646
0.001001221
0.001006256
0.000912261
0.000756161
0.000553063
0.000302632
5.70687E-05
-0.000113634
-0.000228611
-0.000311696
-0.000359533
-0.000376318
-0.000357183
-0.000292561
-0.000197559
-0.000118502
-8.71138E-05
-8.34211E-05
-7.80499E-05
-5.47189E-05
-3.05486E-05
-2.73594E-05
-3.122E-05
-1.42672E-05
2.13169E-05
4.95155E-05
6.41184E-05
7.48608E-05
6.09293E-05
2.06455E-05
-7.55322E-06
-3.86053E-06
1.2253E-05
2.60166E-05
3.81018E-05
5.15297E-05
5.89151E-05
4.38086E-05
1.05745E-05
-2.63523E-05
-6.07614E-05
-9.39956E-05
-0.000134447
-0.000179767
-0.000218708
-0.000224918
-0.00019118
-0.000152575
-0.000137972
-0.000121691
-8.40925E-05
-5.99222E-05
-6.09293E-05
-5.2369E-05
-7.38537E-06
6.69719E-05
0.000135119
0.000165331
0.000157275
0.000127901
0.000124544
0.000170871
0.000197223
0.000163989
0.000114641
7.48608E-05
4.51514E-05
2.85344E-05
2.3331E-05
2.50095E-05
3.28985E-05
4.7837E-05
6.37827E-05
7.87213E-05
0.000106584
0.000125383
0.000122362
0.000102892
8.22461E-05
6.81468E-05
5.74044E-05
4.73335E-05
4.07874E-05
2.13169E-05
-4.19623E-06
-1.52743E-05
-2.40024E-05
-8.71138E-05
-0.000233646
-0.000412573
-0.000572702
-0.000698085
-0.000781674
-0.000815076
-0.000755154
-0.000550546
-0.000229953
0.000136126
0.000458396
0.000684657
0.000829007
0.000900175
0.00090219
0.000848142
0.000720912
0.000542321
0.000391928
0.000303136
0.000229282
0.000140154
6.05936E-05
5.87472E-06
-2.38346E-05
-2.70237E-05
-5.87472E-06
1.4435E-05
1.4435E-05
7.21752E-06
-1.0071E-06
-3.70947E-05
-0.000106249
-0.000167178
-0.00020444
-0.000230625
-0.000242878
-0.000233982
-0.00020293
-0.000150896
-9.131E-05
-4.38086E-05
-5.53902E-06
3.64233E-05
7.63714E-05
0.00010927
0.000129747
9.78561E-05
-1.67849E-07
-0.000121691
-0.000224414
-0.000296422
-0.000346105
-0.000370947
-0.00035903
-0.000295583
-0.000186145
-6.66362E-05
2.76951E-05
8.10712E-05
0.000100374
0.00010692
0.000122866
0.000147204
0.000163653
0.000151232
8.03998E-05
-3.03807E-05
-0.000142504
-0.000243214
-0.000328313
-0.000389242
-0.000385046
-0.000300114
-0.000173388
-4.41443E-05
9.85275E-05
0.000256977
0.000400992
0.000502708
0.000559777
0.00059234
0.000591669
0.000535271
0.000441611
0.00035433
0.000270405
0.000152911
2.36667E-05
-6.16007E-05
-8.74495E-05
-7.20073E-05
-4.14588E-05
-2.53452E-05
-1.66171E-05
2.18204E-06
1.25887E-05
-7.21752E-06
-6.32792E-05
-0.000125887
-0.000160967
-0.000184466
-0.00021384
-0.000225757
-0.000223239
-0.000239689
-0.000250599
-0.000224414
-0.00016936
-0.000104906
-2.23239E-05
7.87213E-05
0.000146029
0.000153246
0.000144686
0.000144518
0.00014284
0.000145525
0.000143847
0.000127901
0.000109941
8.30854E-05
3.32342E-05
-1.59457E-05
-3.6759E-05
-4.26337E-05
-4.85084E-05
-4.5655E-05
-7.3518E-05
-0.000149889
-0.000272251
-0.000426337
-0.000556085
-0.000612818
-0.000590829
-0.000502541
-0.000351476
-0.000150561
9.04707E-05
0.000357015
0.000596704
0.000748775
0.000807858
0.000800137
0.00071957
0.000566491
0.000381857
0.000219043
8.84565E-05
-2.56809E-05
-0.000114305
-0.000162646
-0.000164492
-0.000107927
-2.85344E-06
0.000125551
0.000236835
0.00029189
0.000276448
0.000224414
0.000152911
4.3473E-05
-7.67071E-05
-0.000170199
-0.000248249
-0.000335531
-0.00042063
-0.000458228
-0.000468467
-0.000462425
-0.000437751
-0.0003785
-0.000279133
-0.000150225
3.86053E-06
0.0001561
0.000269062
0.000330159
0.000346944
0.000334188
0.000328817
0.000355673
0.000358358
0.000229786
-1.62814E-05
-0.00026537
-0.000474846
-0.000655283
-0.00077882
-0.000791409
-0.00066183
-0.000411063
-9.65133E-05
0.000223743
0.00050573
0.000729976
0.000880705
0.000963287
0.000980743
0.000899168
0.000703456
0.000455711
0.000243549
9.18135E-05
-2.70237E-05
-0.000129747
-0.000227436
-0.000310521
-0.000371786
-0.000400153
-0.00039881
-0.000379675
-0.000348287
-0.000300618
-0.000232807
-0.000153414
-6.24399E-05
3.17235E-05
0.000106584
0.000154253
0.000192187
0.000216022
0.000190509
0.000113298
2.13169E-05
-5.25368E-05
-9.98703E-05
-0.000121355
-0.000111788
-8.19104E-05
-5.6733E-05
-3.52483E-05
-1.46029E-05
1.42672E-05
4.91798E-05
4.11231E-05
-4.0116E-05
-0.000149889
-0.000240528
-0.000296757
-0.000320592
-0.000324117
-0.000300954
-0.00022475
-9.51705E-05
5.35439E-05
0.000186313
0.000288869
0.000365072
0.000416938
0.000424826
0.000361044
0.000201587
7.88891E-06
-0.000169863
-0.000356512
-0.000561456
-0.000721584
-0.000744579
-0.000611978
-0.0003738
-7.53643E-05
0.000232807
0.000495323
0.000685328
0.000802487
0.000867277
0.00090219
0.000878019
0.000774624
0.000639002
0.000500023
0.000322103
9.18135E-05
-0.000124712
-0.000250431
-0.000288869
-0.000306661
-0.000346105
-0.000380514
-0.000367758
-0.000316564
-0.00024506
-0.000166003
-8.89601E-05
-1.91348E-05
2.50095E-05
3.81018E-05
3.59197E-05
3.27306E-05
3.97803E-05
2.48417E-05
-7.77142E-05
-0.00028954
-0.000561624
-0.000785031
-0.000900343
-0.000919814
-0.000844114
-0.000654612
-0.000359701
-1.05745E-05
0.00032932
0.000609461
0.000811551
0.000941131
0.001008774
0.001024384
0.000988128
0.000879362
0.000704799
0.000502708
0.000310521
0.000180774
0.000116655
2.24918E-05
-0.000125719
-0.000259831
-0.000341405
-0.000382696
-0.000389075
-0.000358694
-0.000305653
-0.000242206
-0.000160967
-5.38796E-05
6.26078E-05
0.000153918
0.000206622
0.000204944
0.000138476
5.72366E-05
1.561E-05
-2.83665E-05
-0.000150896
-0.000347951
-0.000538796
-0.000674083
-0.000744747
-0.00074609
-0.000672572
-0.000525872
-0.000324788
-8.00641E-05
0.000178088
0.00041207
0.000609461
0.000743069
0.000782681
0.000739712
0.000631617
0.000473838
0.000286519
0.000115816
4.53193E-06
-5.06905E-05
-7.40215E-05
-8.99672E-05
-9.55062E-05
-6.09293E-05
-2.09812E-05
-3.50805E-05
-0.000100038
-0.000162646
-0.000186984
-0.000185641
-0.000163149
-0.000109606
-2.61845E-05
6.29435E-05
0.000119844
0.000143511
0.000151568
0.000156771
0.000155261
0.000137469
9.48348E-05
1.79599E-05
-0.000117662
-0.000302968
-0.000482063
-0.000587976
-0.000610971
-0.000593515
-0.000550378
-0.000451179
-0.000300114
-0.00011162
0.000117998
0.000376654
0.000619867
0.00081088
0.00094583
0.001013474
0.000964965
0.00077731
0.000501366
0.000222736
-8.39246E-06
-0.00020679
-0.000367422
-0.000452354
-0.000446479
-0.000371115
-0.000267552
-0.000168185
-8.34211E-05
-1.52743E-05
5.35439E-05
8.7953E-05
4.75013E-05
-2.26596E-05
-8.22461E-05
-0.000129412
-0.000152239
-0.000143511
-0.000106752
-5.18654E-05
1.67849E-07
4.14588E-05
9.3492E-05
0.000177081
0.000269398
0.000339391
0.000367758
0.000338888
0.000244221
0.000100038
-4.16266E-05
-0.000140658
-0.00020293
-0.000246403
-0.000278126
-0.0002934
-0.000280308
-0.000242878
-0.000204944
-0.000166842
-0.000117159
-5.82437E-05
3.52483E-06
6.22721E-05
0.000116991
0.000167178
0.000198398
0.000202258
0.000190509
0.000155596
8.81208E-05
1.05745E-05
-3.20592E-05
-2.75273E-05
-7.04967E-06
-1.76242E-05
-7.41894E-05
-0.000148547
-0.000206622
-0.000232303
-0.000217533
-0.000168017
-0.00010692
-4.53193E-05
7.55322E-06
6.21042E-05
0.000131762
0.000225422
0.000322774
0.000371786
0.000357351
0.000272419
0.000131426
-2.16526E-05
-0.000156939
-0.000247578
-0.000288197
-0.000287526
-0.000239353
-0.00014519
-2.31632E-05
9.08064E-05
0.00016701
0.000203937
0.000234485
0.000262181
0.000254963
0.000163989
-1.30922E-05
-0.000221057
-0.000391089
-0.000484245
-0.000497841
-0.000430198
-0.000284672
-7.55322E-05
0.000173053
0.000423819
0.000636988
0.000771267
0.000801144
0.000749111
0.000644373
0.000499016
0.000336873
0.000173053
1.39315E-05
-0.000136797
-0.000265537
-0.000350637
-0.000392599
-0.000395789
-0.000361212
-0.000289036
-0.000185138
-7.85535E-05
1.05745E-05
8.44282E-05
0.000154253
0.000226093
0.000279805
0.000267384
0.000197223
0.000109606
2.23239E-05
-6.07614E-05
-0.000130755
-0.000178256
-0.000204608
-0.000210651
-0.000199573
-0.000178256
-0.000151232
-0.000108934
-5.89151E-05
-4.2298E-05
-7.72107E-05
-0.000152407
-0.0002318
-0.000280644
-0.000291051
-0.00026067
-0.00019823
-0.000123705
-2.98772E-05
6.8986E-05
0.000140826
0.000196216
0.000247578
0.000285847
0.000303304
0.00028014
0.000197894
3.45769E-05
-0.000172045
-0.000335866
-0.000423484
-0.000435065
-0.000361379
-0.000219043
-5.57259E-05
8.77851E-05
0.000193866
0.00026772
0.000330831
0.000402335
0.000483909
0.000551553
0.000575723
0.000551385
0.000485756
0.000362219
0.000198398
5.55581E-05
-5.80758E-05
-0.000144686
-0.000183795
-0.000184634
-0.000172717
-0.00012874
-8.74495E-05
-8.07355E-05
-9.08064E-05
-8.89601E-05
-7.73785E-05
-6.86503E-05
-5.27047E-05
-3.05486E-05
-3.30663E-05
-6.26078E-05
-8.10712E-05
-0.000100542
-0.000183795
-0.000310857
-0.000427344
-0.000500694
-0.000500862
-0.000422309
-0.000289708
-0.000149889
-2.09812E-05
0.000110613
0.00025362
0.000384543
0.000494652
0.000601404
0.000681971
0.0006907
0.000603418
0.000448325
0.000275776
0.000130587
1.99741E-05
-5.1194E-05
-7.33501E-05
-5.82437E-05
-2.19882E-05
7.21752E-06
6.54612E-06
-7.21752E-06
-1.25887E-05
-2.13169E-05
-6.04257E-05
-0.000116991
-0.000177417
-0.000232136
-0.000279133
-0.000303639
-0.000283497
-0.000206958
-8.40925E-05
4.68299E-05
0.000145861
0.00020293
0.000221057
0.000214679
0.000192523
0.000150225
9.90311E-05
5.38796E-05
2.21561E-05
-1.72885E-05
-0.000100038
-0.000229953
-0.000349126
-0.00041912
-0.000525032
-0.00070866
-0.000902358
-0.001036637
-0.001062486
-0.000956069
-0.00071722
-0.00035903
6.16007E-05
0.00046276
0.000823636
0.001132815
0.001369482
0.001521889
0.00157023
0.001515846
0.001374853
0.001126436
0.000789395
0.000446647
0.000159625
-4.17945E-05
-0.000168688
-0.000263691
-0.000339727
-0.000391257
-0.00041207
-0.000404013
-0.000375143
-0.00033402
-0.00028484
-0.000237507
-0.00020293
-0.000180774
-0.000165331
-0.000155428
-0.000148547
-0.000144518
-0.000142504
-0.00013814
-0.000132601
-0.00011783
-0.000123201
-0.000189502
-0.000304143
-0.000410056
-0.000476188
-0.000498177
-0.00047451
-0.000418952
-0.000334691
-0.000211322
-6.19364E-05
8.34211E-05
0.000201251
0.000281315
0.000338216
0.000381186
0.000407706
0.000410056
0.000373129
0.000292561
0.000153582
-3.99481E-05
-0.000214176
-0.000306661
-0.000331502
-0.000297429
-0.000217868
-0.000117662
5.20333E-06
0.000148211
0.000285847
0.000395621
0.000481895
0.000546014
0.000581262
0.000581262
0.000535271
0.000430869
0.000296254
0.000169024
6.36149E-05
-2.4506E-05
-0.000110613
-0.000214008
-0.000309178
-0.000352819
-0.000356847
-0.000347951
-0.000324453
-0.000273426
-0.000187991
-7.83856E-05
3.32342E-05
0.000125719
0.000198901
0.000256306
0.000288029
0.000280812
0.000223407
8.96315E-05
-0.000138308
-0.000426673
-0.00066099
-0.000781506
-0.000802487
-0.000749279
-0.000620874
-0.000404181
-0.000116152
0.000185138
0.000431373
0.000611307
0.000754482
0.000853849
0.000874662
0.00080148
0.000653101
0.000485252
0.000343252
0.000230793
0.000144854
6.59648E-05
-1.64492E-05
-7.65393E-05
-0.000103059
-0.000120684
-0.000145525
-0.000174395
-0.000204944
-0.000222065
-0.000205447
-0.000161975
-0.000112123
-7.41894E-05
-5.30404E-05
-3.10521E-05
-5.20333E-05
-0.000142
-0.000233143
-0.0002934
-0.000331502
-0.000339223
-0.000309346
-0.000243046
-0.000143175
-3.37377E-05
5.58938E-05
0.000125048
0.000172717
0.000186313
0.000174395
0.000158618
0.000149554
0.000153582
0.000162982
0.000177081
0.000177081
8.5771E-05
-7.67071E-05
-0.0002177
-0.000300282
-0.000319081
-0.00028098
-0.00019353
-6.84825E-05
6.42863E-05
0.000189166
0.000303304
0.000403342
0.000481559
0.000521843
0.000516808
0.00046981
0.000374136
0.000232471
8.54353E-05
-3.54162E-05
-0.000135622
-0.000233814
-0.000302632
-0.000302296
-0.000236835
-0.000157443
-0.000114977
-0.000100374
-8.20783E-05
-6.14328E-05
-6.3447E-05
-9.95346E-05
-0.000160632
-0.000218372
-0.000248081
-0.000258991
-0.000264866
-0.000266041
-0.000272419
-0.000275105
-0.000246235
-0.000166003
-4.07874E-05
0.000108934
0.000242542
0.000346273
0.000423484
0.000439597
0.000360372
0.000195377
-2.03098E-05
-0.000256306
-0.000490455
-0.000657633
-0.000689189
-0.000591669
-0.0003832
-8.87922E-05
0.000234821
0.000533593
0.000776974
0.000945159
0.001031098
0.00102237
0.00092166
0.000772946
0.000621881
0.000480552
0.000330495
0.000174395
5.1194E-05
-3.03807E-05
-8.30854E-05
-0.000100542
-9.58419E-05
-0.000125719
-0.000209812
-0.000319585
-0.000418112
-0.000477699
-0.000482063
-0.000435065
-0.000340566
-0.000227771
-0.000138811
-7.70428E-05
-3.79339E-05
-7.38537E-06
4.07874E-05
4.06195E-05
-8.40925E-05
-0.000294911
-0.000530739
-0.000735012
-0.000840253
-0.000814572
-0.000666697
-0.000427512
-0.00012723
0.000197894
0.000506737
0.000754482
0.000899504
0.000939117
0.000923003
0.000880369
0.000790738
0.00065243
0.000481895
0.000312032
0.00014519
-5.60616E-05
-0.000260838
-0.000396963
-0.000448829
-0.000461418
-0.000453025
-0.00042063
-0.000371786
-0.000309682
-0.000237171
-0.000151064
-3.37377E-05
0.00010692
0.000233814
0.000335866
0.000411231
0.00043473
0.000391928
0.000303304
0.000192859
7.21752E-05
-4.61585E-05
-0.000138476
-0.000178759
-0.000195041
-0.000238849
-0.000302968
-0.000343923
-0.000362051
-0.000380179
-0.000397971
-0.000390082
-0.000329152
-0.000216022
-7.70428E-05
6.05936E-05
0.000185138
0.000284504
0.000337545
0.000327474
0.00025362
0.000143175
1.25887E-05
-0.000104402
-0.000161303
-0.000139818
-7.10002E-05
4.86763E-06
7.93927E-05
0.000152911
0.000230121
0.000310689
0.000366751
0.000356847
0.000303304
0.000230793
0.000102724
-7.80499E-05
-0.000252613
-0.000389242
-0.000468132
-0.000455375
-0.000366079
-0.000244388
-0.000126558
-1.8967E-05
9.31563E-05
0.000236667
0.000394446
0.000500694
0.000540139
0.000506737
0.000397299
0.000236164
7.36858E-05
-4.04517E-05
-0.000126558
-0.000240696
-0.000354162
-0.00039881
-0.000382528
-0.000343587
-0.00028719
-0.000203265
-9.06386E-05
4.04517E-05
0.000190845
0.000360372
0.000506065
0.000595697
0.000620874
0.00057052
0.000426841
0.000201083
-5.65652E-05
-0.000256306
-0.000344427
-0.000357519
-0.000339895
-0.000292393
-0.000223911
-0.000138643
-2.36667E-05
0.000107256
0.000217365
0.000294408
0.000338216
0.000335531
0.000275608
0.000174395
5.08583E-05
-7.46929E-05
-0.000178759
-0.000244556
-0.000262852
-0.000234653
-0.000164996
-7.9057E-05
-3.47448E-05
-5.18654E-05
-8.25818E-05
-8.4596E-05
-6.009E-05
-2.6688E-05
2.18204E-06
1.2253E-05
-5.53902E-06
-3.91089E-05
-7.73785E-05
-0.000105913
-0.000108431
-9.75204E-05
-7.62036E-05
-3.84375E-05
7.88891E-06
5.48867E-05
7.3518E-05
4.58228E-05
-1.1078E-05
-6.69719E-05
-9.73526E-05
-9.58419E-05
-6.93217E-05
-3.92767E-05
-1.09102E-05
2.50095E-05
7.97284E-05
0.000148882
0.000202258
0.000216022
0.000206958
0.000199069
0.00019823
0.000192355
0.00016936
0.000141497
9.95346E-05
3.70947E-05
-3.6759E-05
-0.000151904
-0.000311696
-0.000444801
-0.000507576
-0.000506569
-0.000444633
-0.000329656
-0.000168521
3.44091E-05
0.000244221
0.000433219
0.000578576
0.000642191
0.000608789
0.000472496
0.000273594
9.09743E-05
-4.14588E-05
-0.000155093
-0.000294743
-0.000434897
-0.000519326
-0.000520668
-0.000476356
-0.000391424
-0.000243214
-6.02579E-05
0.000127398
0.000306661
0.000457053
0.000547021
0.000563806
0.000550378
0.000543664
0.000546685
0.000514626
0.000413245
0.000263691
0.000100542
-4.2298E-05
-0.000155932
-0.000270069
-0.000382361
-0.000462592
-0.000487098
-0.000448325
-0.000371618
-0.00028484
-0.000177752
-2.63523E-05
0.000139315
0.000270405
0.000351644
0.000385214
0.000364736
0.000293568
0.000196551
0.000105913
3.74304E-05
1.51064E-06
-1.35958E-05
-3.92767E-05
-8.77851E-05
-0.000129747
-0.000149889
-0.000170703
-0.000198062
-0.00020444
-0.000200412
-0.000195041
-0.000181949
-0.000157946
-0.000117998
-6.22721E-05
6.71397E-07
5.28725E-05
7.50286E-05
6.27756E-05
4.85084E-05
5.85794E-05
9.0135E-05
0.000117998
0.000115984
9.63455E-05
8.14069E-05
7.06645E-05
5.08583E-05
2.93736E-05
2.3331E-05
3.20592E-05
2.80308E-05
-2.68559E-06
-3.70947E-05
-5.85794E-05
-6.19364E-05
-7.03288E-05
-9.38277E-05
-0.000119509
-0.000135286
-0.000119005
-6.49577E-05
-2.51774E-06
4.51514E-05
8.2414E-05
9.76883E-05
8.69459E-05
5.1194E-05
-1.35958E-05
-9.90311E-05
-0.000175067
-0.0002365
-0.000282826
-0.000286183
-0.000224414
-0.000110613
3.20592E-05
0.000158282
0.000240864
0.00029424
0.00034023
0.000386557
0.000410391
0.000381186
0.000298604
0.000155261
-2.97093E-05
-0.000194873
-0.00029424
-0.000317067
-0.000272251
-0.000187152
-9.85275E-05
-2.43381E-05
4.48157E-05
0.000129747
0.000199741
0.000229282
0.000241199
0.000253284
0.000271077
0.00028954
0.000251606
0.000147539
2.13169E-05
-8.47639E-05
-0.000148211
-0.000178088
-0.000183291
-0.000152071
-8.30854E-05
1.05745E-05
9.55062E-05
0.000147539
0.000169528
0.000177081
0.000174395
0.000151232
0.000107256
3.07164E-05
-8.27497E-05
-0.000194034
-0.000275105
-0.000331502
-0.000387396
-0.000422477
-0.000392767
-0.00029659
-0.000162478
-3.84375E-05
7.63714E-05
0.000206622
0.000345602
0.000469139
0.000555413
0.000562799
0.000472496
0.00031136
0.000124712
-4.51514E-05
-0.000158618
-0.000213169
-0.0002224
-0.000203433
-0.000178927
-0.000136461
-7.28466E-05
5.20333E-06
8.84565E-05
0.000134783
0.000109438
5.30404E-05
1.35958E-05
-1.35958E-05
-4.29694E-05
-6.73075E-05
-6.64683E-05
-4.66621E-05
-1.15816E-05
3.92767E-05
8.49317E-05
0.000102556
9.38277E-05
8.37568E-05
6.74754E-05
2.90379E-05
-1.91348E-05
-6.16007E-05
-0.000101717
-0.000141161
-0.000160464
-0.000133944
-7.10002E-05
-2.51774E-06
4.21302E-05
6.56291E-05
0.000101884
0.000150896
0.000195544
0.0002318
0.000254627
0.000249592
0.000225422
0.000192691
0.000133104
3.62554E-05
-7.70428E-05
-0.000171038
-0.000221057
-0.000245396
-0.000270069
-0.000289036
-0.000290547
-0.000261006
-0.000202594
-0.000137469
-8.44282E-05
-3.91089E-05
-1.51064E-06
1.05745E-05
9.23171E-06
2.06455E-05
2.85344E-05
1.86313E-05
9.56741E-06
1.35958E-05
2.06455E-05
2.80308E-05
4.24659E-05
6.52934E-05
7.82178E-05
6.26078E-05
1.19173E-05
-9.33242E-05
-0.000256138
-0.000416602
-0.000534432
-0.000603586
-0.000608286
-0.000546853
-0.00041593
-0.000209979
4.11231E-05
0.000315724
0.000599054
0.000843107
0.001009613
0.001109651
0.001143053
0.00108481
0.000915282
0.000656458
0.000401328
0.000214679
6.74754E-05
-8.62745E-05
-0.000235492
-0.000351644
-0.000446815
-0.000545678
-0.000637491
-0.000700771
-0.000710002
-0.000642191
-0.000487266
-0.000259159
-1.17494E-06
0.000230793
0.000394614
0.000477195
0.00049398
0.00046041
0.00037145
0.000249592
0.000141665
5.05226E-05
-3.64233E-05
-0.000131762
-0.000216526
-0.000268727
-0.000288197
-0.000270573
-0.000223407
-0.000164324
-0.000105241
-5.15297E-05
-3.86053E-06
3.27306E-05
4.09552E-05
2.98772E-05
2.19882E-05
1.39315E-05
5.20333E-06
1.46029E-05
3.54162E-05
3.27306E-05
1.12459E-05
-2.50095E-05
-6.96574E-05
-0.000104067
-0.000115984
-0.000100206
-5.65652E-05
3.52483E-06
7.33501E-05
0.000146868
0.000213001
0.000262181
0.000298268
0.000323278
0.000336538
0.000319921
0.000250263
0.000130922
-3.86053E-06
-0.000148211
-0.000286686
-0.000366918
-0.000376486
-0.000329152
-0.000235828
-0.000111116
1.15816E-05
0.000103563
0.000151904
0.000159625
0.0001514
0.000146532
0.000132433
7.63714E-05
-3.5584E-05
-0.000161639
-0.00026688
-0.000324453
-0.00031136
-0.000237507
-0.000137301
-2.97093E-05
0.000100542
0.000224414
0.000283162
0.000269062
0.000169696
2.63523E-05
-9.14778E-05
-0.00015761
-0.000185641
-0.000173724
-0.000100206
3.27306E-05
0.000194369
0.00037145
0.000529564
0.000618524
0.000622889
0.000571191
0.000473167
0.000329488
0.000165835
1.82956E-05
-0.000116655
-0.000221561
-0.000263523
-0.000243885
-0.000196887
-0.000151904
-0.000110277
-5.7908E-05
-4.36408E-06
3.94446E-05
6.36149E-05
6.42863E-05
5.22011E-05
3.37377E-05
1.49386E-05
-1.09102E-05
-4.09552E-05
-6.56291E-05
-9.29885E-05
-0.000120684
-0.000143511
-0.000164996
-0.000172213
-0.000160296
-0.000146029
-0.000136461
-0.000123705
-0.000105745
-8.67781E-05
-7.13359E-05
-6.24399E-05
-5.42153E-05
-4.88441E-05
-6.99931E-05
-0.000114473
-0.000155932
-0.000185809
-0.000198733
-0.000178592
-0.000132769
-8.30854E-05
-2.70237E-05
3.45769E-05
8.20783E-05
9.95346E-05
0.000102724
0.000111788
0.000115145
0.000102556
9.65133E-05
0.000100877
0.00010927
0.000125048
0.000140826
0.000144854
0.000126055
8.64424E-05
4.46479E-05
2.85344E-06
-2.36667E-05
-3.13878E-05
-4.31373E-05
-5.25368E-05
-4.64942E-05
-3.91089E-05
-4.38086E-05
-4.43122E-05
-1.82956E-05
2.43381E-05
5.99222E-05
8.97993E-05
8.77851E-05
2.16526E-05
-6.69719E-05
-0.000135286
-0.000186816
-0.000213169
-0.000202258
-0.000142504
-3.10521E-05
0.000108934
0.000228107
0.000305989
0.000326131
0.000279133
0.000188495
0.000116655
9.98703E-05
0.000114137
0.000140826
0.000158282
0.000144854
0.000118669
0.000125048
0.000187823
0.000271412
0.00032076
0.000331167
0.000329824
0.00031606
0.000286519
0.000236164
0.000148211
5.55581E-05
-1.64492E-05
-8.72816E-05
-0.00017557
-0.000267384
-0.000321599
-0.000308675
-0.00024741
-0.000171374
-0.000112123
-9.48348E-05
-9.90311E-05
-9.11421E-05
-9.50027E-05
-0.000121019
-0.000160296
-0.000194202
-0.000205615
-0.000203937
-0.000214847
-0.000242542
-0.000253452
-0.000223743
-0.000141161
-1.84634E-06
0.000160967
0.000294575
0.000382528
0.000425498
0.000438926
0.000411902
0.000323781
0.000190509
4.75013E-05
-7.21752E-05
-0.000158953
-0.000217029
-0.000226596
-0.000184131
-0.00013814
-0.000168185
-0.000255802
-0.000338888
-0.000386389
-0.000382025
-0.000315221
-0.000206287
-8.56031E-05
1.59457E-05
7.85535E-05
0.000120516
0.000166003
0.000226764
0.000293904
0.000343587
0.000381186
0.000395956
0.000373129
0.000322103
0.000272084
0.000233143
0.000185641
0.000137804
0.000105577
6.02579E-05
-2.3331E-05
-0.00011632
-0.000197726
-0.000270909
-0.000339559
-0.000391928
-0.000400656
-0.000348119
-0.000244053
-0.00010222
5.89151E-05
0.000198566
0.000283162
0.00031606
0.000319249
0.000293904
0.000218708
9.43313E-05
-3.64233E-05
-0.000122362
-0.000159121
-0.000142672
-7.40215E-05
9.23171E-06
7.03288E-05
9.95346E-05
9.78561E-05
7.50286E-05
4.68299E-05
2.13169E-05
5.20333E-06
-3.52483E-06
-8.56031E-06
-1.561E-05
-2.92058E-05
-3.23949E-05
-2.61845E-05
-2.56809E-05
-2.97093E-05
-3.82696E-05
-4.58228E-05
-4.448E-05
-4.51514E-05
-7.57E-05
-0.000119005
-0.000140826
-0.000141497
-0.000125719
-0.000108934
-0.00011632
-0.000124041
-0.000109941
-8.32532E-05
-5.92508E-05
-5.60616E-05
-7.53643E-05
-0.000101213
-0.000106584
-8.2414E-05
-3.50805E-05
1.87991E-05
0.000100374
0.00022005
0.000333852
0.000398642
0.000435569
0.00044799
0.000389242
0.000273762
0.000129747
-1.96384E-05
-0.000128405
-0.000203265
-0.000280308
-0.000368093
-0.000428351
-0.000409216
-0.000322942
-0.000218708
-0.00010222
9.73526E-06
0.000122362
0.00025362
0.000391928
0.000520836
0.000633631
0.000716884
0.000747768
0.000724941
0.000674586
0.000604089
0.000492973
0.000329488
0.000156939
8.56031E-06
-0.000124041
-0.000229786
-0.00030515
-0.000352483
-0.000368597
-0.000360372
-0.000352316
-0.000368261
-0.000407874
-0.000438926
-0.000441443
-0.000420295
-0.00036524
-0.000260334
-0.000128573
-3.86053E-06
0.000104402
0.000193194
0.000246738
0.000264698
0.000239353
0.000153582
2.60166E-05
-0.000120012
-0.000268727
-0.000399146
-0.000489113
-0.000511269
-0.000452522
-0.000343923
-0.000210651
-5.82437E-05
0.000123369
0.000322103
0.000507073
0.000639002
0.000699092
0.000689693
0.000620203
0.000512108
0.000377493
0.000214008
4.07874E-05
-8.92958E-05
-0.000167849
-0.000237171
-0.000317235
-0.000377157
-0.000390082
-0.000368765
-0.000330159
-0.000277623
-0.000211994
-0.000119005
-1.1078E-05
7.87213E-05
0.000132433
0.00013344
9.78561E-05
6.16007E-05
4.81727E-05
6.009E-05
7.28466E-05
4.86763E-05
-2.68559E-06
-6.1265E-05
-0.000123705
-0.000170871
-0.000183124
-0.000164157
-0.000107256
-1.76242E-05
7.75464E-05
0.000143511
0.000153582
0.000135454
0.000130419
0.000140826
0.000143511
0.000150896
0.000185138
0.000238849
0.000269734
0.00024892
0.000177081
6.24399E-05
-6.22721E-05
-0.00016701
-0.000248081
-0.000294743
-0.000291051
-0.000230457
-0.00012958
-1.2253E-05
0.000108263
0.000230793
0.000340734
0.000415763
0.000444129
0.000421134
0.000357015
0.000278965
0.000201083
0.000122026
4.21302E-05
-2.92058E-05
-9.41634E-05
-0.000180774
-0.000272923
-0.000343755
-0.000391592
-0.000408042
-0.000393774
-0.0003691
-0.000334356
-0.000270741
-0.000177584
-7.95605E-05
1.12459E-05
0.000102556
0.000201251
0.000300618
0.000381186
0.000424155
0.000411734
0.000334859
0.000236164
0.000137804
4.0116E-05
-4.58228E-05
-0.000114641
-0.000166339
-0.000194202
-0.000183963
-0.000152239
-0.000131762
-0.000110613
-6.32792E-05
-4.86763E-06
3.6759E-05
6.29435E-05
8.71138E-05
0.000109941
0.000126726
0.000129412
0.000120684
9.61776E-05
4.54871E-05
-2.80308E-05
-0.00011632
-0.000215015
-0.000308843
-0.000369268
-0.000376654
-0.000325292
-0.000230121
-0.000113298
1.12459E-05
0.000126055
0.000216022
0.000275776
0.000308675
0.00032076
0.000314885
0.00029659
0.000266712
0.000176577
2.1149E-05
-0.000132601
-0.00025362
-0.00040737
-0.000603586
-0.000767742
-0.000851331
-0.00084831
-0.000741894
-0.000520668
-0.000218372
0.000100542
0.000415763
0.000715877
0.000963958
0.001143221
0.00123386
0.001222446
0.001142214
0.000997528
0.00078201
0.000519493
0.000259327
5.80758E-05
-8.03998E-05
-0.000186816
-0.000269398
-0.000314382
-0.000318746
-0.000299947
-0.000274769
-0.00025127
-0.000231128
-0.00021619
-0.00020763
-0.000205447
-0.00020293
-0.000191516
-0.000168353
-0.000139147
-0.000117159
-0.000106416
-0.000105745
-0.000108598
-0.000109941
-0.000133776
-0.000176745
-0.00021619
-0.000240528
-0.000244221
-0.000219379
-0.000163989
-7.80499E-05
3.40734E-05
0.000160967
0.000273426
0.000339895
0.000348959
0.000310018
0.000245563
0.000177752
0.000123033
8.5771E-05
3.70947E-05
-5.74044E-05
-0.000175906
-0.000282155
-0.00036759
-0.000433219
-0.00045655
-0.000431373
-0.000374304
-0.000302464
-0.000215351
-9.16457E-05
5.65652E-05
0.000194202
0.000317906
0.00043154
0.000533593
0.000611307
0.000642863
0.000624567
0.000562799
0.000452354
0.000309346
0.000164996
4.07874E-05
-6.93217E-05
-0.000168856
-0.000235828
-0.000270069
-0.000294072
-0.000341238
-0.000397971
-0.000416098
-0.000391424
-0.000331502
-0.000230121
-9.88632E-05
2.87022E-05
0.000122698
0.000190845
0.000251942
0.00029424
0.000304982
0.000300618
0.000298939
0.000263523
0.000158282
1.67849E-06
-0.000178592
-0.000320592
-0.000383368
-0.000368429
-0.000302632
-0.000224582
-0.000138308
-4.19623E-05
6.16007E-05
0.000170367
0.000281147
0.000387564
0.000475853
0.000539635
0.000547692
0.000482902
0.00034963
0.00017641
1.51064E-05
-9.78561E-05
-0.000177417
-0.000223407
-0.000214343
-0.000182788
-0.000196719
-0.000276616
-0.000375814
-0.000440269
-0.000453864
-0.000445304
-0.000420295
-0.000344427
-0.000215518
-5.65652E-05
0.000121187
0.000307332
0.000456046
0.000530236
0.00054165
0.000515465
0.000457389
0.000384207
0.00031136
0.000234485
0.000148043
4.39765E-05
-5.72366E-05
-0.000115648
-0.00012874
-0.000119509
-9.28206E-05
-4.75013E-05
-2.43381E-05
-3.94446E-05
-8.87922E-05
-0.000155932
-0.000223072
-0.000282155
-0.000318914
-0.000324117
-0.000305653
-0.000269398
-0.000209644
-0.000107591
2.85344E-06
5.05226E-05
5.55581E-05
6.94896E-05
0.000101213
0.000142504
0.0001514
9.91989E-05
2.36667E-05
-2.19882E-05
-2.18204E-05
-8.39246E-07
3.50805E-05
9.36599E-05
0.000171374
0.000257481
0.000322774
0.000335531
0.000297932
0.000245563
0.000199573
0.000156268
9.65133E-05
3.20592E-05
-7.88891E-06
-2.65202E-05
-3.77661E-05
-4.83406E-05
-5.55581E-05
-4.85084E-05
-2.83665E-05
-3.86053E-06
1.81277E-05
2.50095E-05
6.54612E-06
-2.92058E-05
-7.26787E-05
-0.000124376
-0.000180102
-0.000240192
-0.000313039
-0.00038085
-0.000431037
-0.000455879
-0.000447654
-0.000413748
-0.000362387
-0.000284672
-0.000179431
-5.65652E-05
8.64424E-05
0.000230457
0.000355505
0.000451011
0.000519829
0.000571862
0.000603922
0.000606775
0.000574548
0.000499351
0.000397971
0.000305318
0.000240864
0.000185473
0.000121691
5.95865E-05
-3.86053E-06
-7.46929E-05
-0.000135622
-0.000176913
-0.000196216
-0.000193362
-0.000199237
-0.000213672
-0.000231632
-0.000250095
-0.000254795
-0.000234653
-0.000192187
-0.000124712
-4.448E-05
2.97093E-05
9.55062E-05
0.000139818
0.000139986
0.000107088
7.80499E-05
6.4622E-05
6.16007E-05
5.58938E-05
3.02129E-05
-2.3331E-05
-0.000103731
-0.000184131
-0.000224414
-0.000244724
-0.000279301
-0.000305318
-0.000283497
-0.000214008
-0.000119341
2.51774E-06
0.000149889
0.000270741
0.00031136
0.00026537
0.000134112
-5.1194E-05
-0.000212833
-0.000317571
-0.000365408
-0.000363729
-0.000304814
-0.000185138
-3.64233E-05
0.000103731
0.000228107
0.000356847
0.000492302
0.000612146
0.000688685
0.000684657
0.00059939
0.000481895
0.000363729
0.000243046
0.000115816
-7.21752E-06
-0.000103227
-0.000152239
-0.000154757
-0.000150896
-0.00017557
-0.000197894
-0.000181949
-0.00013193
-7.16716E-05
-1.39315E-05
4.48157E-05
0.000100206
0.000142168
0.00016701
0.000149554
6.14328E-05
-6.32792E-05
-0.000156603
-0.000197894
-0.000209644
-0.000218708
-0.000230457
-0.000238514
-0.000233814
-0.000214679
-0.000172717
-0.000105913
-2.28275E-05
5.87472E-05
0.000132433
0.000188495
0.000185641
8.87922E-05
-6.1265E-05
-0.000209644
-0.000329656
-0.000412741
-0.000449836
-0.000429358
-0.000335698
-0.000170367
3.03807E-05
0.000226596
0.000390585
0.000513954
0.000608789
0.000675761
0.000693385
0.000654444
0.000571862
0.000467796
0.000359701
0.000229114
7.16716E-05
-6.22721E-05
-0.000122866
-0.000127733
-0.000147036
-0.000208133
-0.000275776
-0.000315557
-0.00032546
-0.000306828
-0.000264363
-0.000211154
-0.000157946
-0.00010222
-4.43122E-05
7.72107E-06
4.04517E-05
2.73594E-05
-1.12459E-05
-4.04517E-05
-6.16007E-05
-9.71847E-05
-0.000150561
-0.000185809
-0.000173388
-0.00011548
-4.81727E-05
3.18914E-06
3.47448E-05
4.17945E-05
2.1149E-05
-1.99741E-05
-6.52934E-05
-0.000103563
-0.000137972
-0.00015996
-0.000167681
-0.000166171
-0.000154757
-0.000121019
-4.31373E-05
6.69719E-05
0.00017641
0.000265705
0.000326467
0.000381857
0.000439933
0.000472496
0.00046981
0.000441947
0.000410056
0.000386557
0.000359701
0.000312367
0.000235492
0.000131426
2.13169E-05
-8.50996E-05
-0.00016701
-0.000199573
-0.000194202
-0.000188159
-0.000179599
-0.000162478
-0.000153246
-0.000164828
-0.000172045
-0.000154757
-0.000103227
-3.122E-05
4.28016E-05
0.000110277
0.000156603
0.000142168
3.91089E-05
-9.65133E-05
-0.000185138
-0.000219043
-0.000233982
-0.000242374
-0.000223743
-0.00016231
-7.21752E-05
1.7792E-05
8.03998E-05
0.000124376
0.000163653
0.000191516
0.000207126
0.0002177
0.00022475
0.000230121
0.000217029
0.000163653
8.72816E-05
1.51064E-06
-0.000106584
-0.000232975
-0.000346944
-0.000450172
-0.000559274
-0.000644541
-0.000684993
-0.000667872
-0.000601404
-0.000478706
-0.000284504
-3.07164E-05
0.000257313
0.00054165
0.000779995
0.000937774
0.001007599
0.000992157
0.000906218
0.000763882
0.000579919
0.000369772
0.000144854
-4.51514E-05
-0.000152575
-0.000194537
-0.000210147
-0.000221393
-0.000232303
-0.000232303
-0.000213672
-0.000193698
-0.000171374
-0.000142168
-0.00010222
-4.58228E-05
-3.18914E-06
-3.35698E-07
-2.16526E-05
-4.24659E-05
-4.91798E-05
-4.75013E-05
-5.42153E-05
-8.35889E-05
-0.000130419
-0.000156771
-0.000148882
-0.000126223
-0.000104906
-7.53643E-05
-2.60166E-05
2.97093E-05
7.36858E-05
9.78561E-05
0.000112291
0.000123873
0.000121859
8.89601E-05
3.05486E-05
-5.2369E-05
-0.000128573
-0.000170703
-0.000236835
-0.000334691
-0.00040267
-0.00041912
-0.00040351
-0.000367086
-0.000308507
-0.000225589
-0.000109941
3.82696E-05
0.000197223
0.000357351
0.000524193
0.000681971
0.000788724
0.00080148
0.000724941
0.000613153
0.00050573
0.00041207
0.000313375
0.000201587
8.5771E-05
-1.49386E-05
-8.15747E-05
-0.000124208
-0.000163653
-0.000208469
-0.000237171
-0.000230625
-0.000203265
-0.000174731
-0.000151232
-0.000140154
-0.000149218
-0.000155932
-0.000139986
-0.000116823
-9.56741E-05
-0.000102892
-0.00019353
-0.000345266
-0.000515969
-0.000680125
-0.000808362
-0.000865263
-0.000813397
-0.000612314
-0.000271748
0.000168688
0.000614496
0.000958251
0.001139864
0.001185519
0.00113785
0.000994842
0.000779995
0.000554406
0.000337545
0.000115984
-0.000100206
-0.00028484
-0.000413581
-0.000484916
-0.000489616
-0.000408042
-0.00026537
-0.000105577
4.98512E-05
0.000180438
0.00026302
0.000283833
0.000261677
0.0002318
0.000193194
0.000137636
6.1265E-05
-3.50805E-05
-0.000109102
-0.000147875
-0.000170367
-0.000181949
-0.000179767
-0.000161303
-0.000132097
-0.000102724
-5.52224E-05
1.8967E-05
9.41634E-05
0.000156939
0.000204944
0.000211658
0.00017171
0.000100542
2.85344E-06
-0.000108263
-0.000196551
-0.000234821
-0.000212161
-0.00014284
-6.83146E-05
-2.50095E-05
-8.39246E-06
1.67849E-07
7.21752E-06
1.12459E-05
8.89601E-06
-1.51064E-06
-1.32601E-05
-2.29953E-05
-6.61326E-05
-0.000168185
-0.000291218
-0.000397635
-0.000467292
-0.000494148
-0.000484581
-0.000493645
-0.000501701
-0.0004495
-0.000348623
-0.000221057
-8.40925E-05
6.22721E-05
0.000248753
0.000467796
0.0006813
0.000867277
0.001011963
0.00108481
0.001071046
0.000986786
0.000847135
0.000655116
0.000441611
0.000240864
5.35439E-05
-0.000117494
-0.000255634
-0.000363561
-0.000428183
-0.000444633
-0.000419791
-0.000361044
-0.000284001
-0.000214343
-0.000167514
-0.000139818
-0.000109606
-5.53903E-05
7.04967E-06
5.58938E-05
9.03029E-05
9.97024E-05
8.37568E-05
6.41184E-05
3.59197E-05
-1.59457E-05
-6.99931E-05
-0.00011632
-0.000166674
-0.000216861
-0.000268223
-0.000320928
-0.000365072
-0.000389746
-0.000372122
-0.000299779
-0.000190845
-6.59648E-05
6.29435E-05
0.00018732
0.000294911
0.000377493
0.000443961
0.000482567
0.000470481
0.000408713
0.000325795
0.000225086
8.64424E-05
-8.32532E-05
-0.00023566
-0.000326131
-0.000367758
-0.000370779
-0.00034107
-0.000304982
-0.00026688
-0.000204105
-0.000111284
-2.3331E-05
3.91089E-05
9.65133E-05
0.000132769
0.000132097
0.000126055
0.000128069
0.00012639
0.000108598
8.27497E-05
7.26787E-05
9.28206E-05
0.000134447
0.000175402
0.000191852
0.000186816
0.000169024
0.000141161
0.000129412
0.000156268
0.000204944
0.0002177
0.000173556
9.21492E-05
-1.29244E-05
-0.000110948
-0.000159121
-0.000156939
-0.000139147
-0.000108431
-5.15297E-05
1.561E-05
6.6804E-05
0.00010457
0.000144183
0.000193194
0.000242039
0.000274601
0.000273426
0.000245563
0.000214679
0.000173556
8.44282E-05
-7.40215E-05
-0.000261006
-0.000399817
-0.000469642
-0.000481392
-0.000443793
-0.000380011
-0.000307164
-0.000221057
-0.000121355
-2.65202E-05
5.47189E-05
0.000133776
0.000209979
0.000256977
0.000258656
0.000227436
0.000153918
4.9012E-05
-3.84375E-05
-9.09743E-05
-0.000149386
-0.000215015
-0.000228779
-0.000165331
-5.22011E-05
7.50286E-05
0.000187655
0.000279133
0.000343252
0.000324117
0.000211658
7.46929E-05
-5.4551E-05
-0.000168856
-0.000244388
-0.000281315
-0.000298268
-0.000314885
-0.000312871
-0.000249256
-0.000104906
9.90311E-05
0.000304646
0.000467124
0.000549035
0.000510094
0.000387228
0.000245396
0.000112627
-1.74563E-05
-0.000141497
-0.000228443
-0.00026067
-0.000244053
-0.000193362
-0.000110277
5.20333E-06
0.00012639
0.000213336
0.000252949
0.000244221
0.000216022
0.000190173
0.00016466
0.000140826
0.000123033
9.41634E-05
2.6688E-05
-6.59648E-05
-0.00014049
-0.000180774
-0.000189334
-0.000180606
-0.000173388
-0.000166674
-0.000149554
-0.00010222
-3.15557E-05
2.50095E-05
4.48157E-05
4.61585E-05
5.60616E-05
8.17426E-05
0.000110948
0.00013193
0.000142504
0.000130083
7.2343E-05
-5.87472E-06
-7.36858E-05
-0.000141833
-0.000214176
-0.00026688
-0.000274601
-0.000232807
-0.000165835
-9.06386E-05
-1.05745E-05
6.49577E-05
0.000130419
0.000187152
0.000216693
0.000167681
4.24659E-05
-8.47639E-05
-0.000159121
-0.000185473
-0.000185473
-0.000166674
-0.000118502
-4.31373E-05
4.68299E-05
0.000125048
0.000162982
0.000168688
0.000179599
0.00020444
0.000218036
0.0002271
0.000240192
0.000221057
0.000168688
0.000106584
3.3402E-05
-5.55581E-05
-0.000154757
-0.000241032
-0.000309682
-0.000342412
-0.000345937
-0.000346777
-0.000316899
-0.000217365
-6.32792E-05
0.000101213
0.000246571
0.000362051
0.000450675
0.000514794
0.000544335
0.000531579
0.000481224
0.00041677
0.000345602
0.000226093
4.28016E-05
-0.000161471
-0.00032697
-0.000410727
-0.000408042
-0.00035903
-0.000290043
-0.000201755
-0.00010692
-2.40024E-05
3.27306E-05
5.75723E-05
5.20333E-05
3.20592E-05
1.0071E-06
-5.27047E-05
-0.000120348
-0.00017792
-0.000219715
-0.000243046
-0.000261341
-0.000289876
-0.000306661
-0.000276783
-0.000179431
-5.75723E-05
3.64233E-05
0.000119677
0.00023415
0.000363058
0.000462928
0.000520668
0.000546349
0.000546349
0.000504723
0.00038555
0.000197559
4.53193E-06
-0.000167681
-0.000301625
-0.000374136
-0.000381857
-0.00034107
-0.000273091
-0.000185641
-7.16716E-05
5.20333E-05
0.000154253
0.000236164
0.000310018
0.000379171
0.000423316
0.000435904
0.000420798
0.0003785
0.000328817
0.00026302
0.000156268
2.61845E-05
-9.98703E-05
-0.000225925
-0.000331838
-0.000382025
-0.000388067
-0.000381689
-0.000366751
-0.000339223
-0.000292226
-0.00021854
-0.000126894
-3.32342E-05
4.38086E-05
9.31563E-05
0.000121187
0.000143847
0.000151064
9.63455E-05
-7.21752E-06
-0.000117662
-0.000210651
-0.000269902
-0.000294911
-0.000275776
-0.000197894
-6.93217E-05
8.5771E-05
0.000220722
0.00031606
0.00037145
0.000388235
0.000379171
0.000362387
0.000326802
0.000256977
0.000163653
6.1265E-05
-6.47898E-05
-0.000204273
-0.000308507
-0.000351476
-0.000346273
-0.000311864
-0.000245396
-0.000157275
-8.17426E-05
-4.39765E-05
-3.0045E-05
-3.52483E-06
4.17945E-05
8.71138E-05
0.000115984
0.000142504
0.000182452
0.000228779
0.000258824
0.000256306
0.000215686
0.000153582
8.81208E-05
4.11231E-05
1.561E-05
-2.63523E-05
-0.000116991
-0.000237171
-0.000353994
-0.000429862
-0.000443458
-0.000384207
-0.000262348
-0.000110948
5.06905E-05
0.000226596
0.000399649
0.000525368
0.000579416
0.000549035
0.000453696
0.000333516
0.000203769
5.95865E-05
-6.39506E-05
-0.000121691
-0.00012253
-0.00012018
-0.000155261
-0.000201923
-0.000222904
-0.000241871
-0.000266041
-0.00028333
-0.000288869
-0.000271244
-0.000237171
-0.000196048
-0.000121859
-1.84634E-06
0.000143511
0.000272419
0.000346273
0.000347616
0.000304646
0.000251606
0.000178424
6.37827E-05
-7.10002E-05
-0.000161303
-0.000181445
-0.00017641
-0.000184634
-0.000215015
-0.00026688
-0.000305989
-0.00030045
-0.000259495
-0.000203937
-0.000162478
-0.000126726
-6.59648E-05
2.50095E-05
0.000144183
0.00029424
0.000463767
0.000620874
0.000709834
0.000707485
0.000647059
0.00056817
0.000475853
0.000359365
0.000235157
0.000120516
3.52483E-06
-9.88632E-05
-0.000146197
-0.00012958
-6.36149E-05
2.76951E-05
0.00010071
0.000127733
0.000107088
6.09293E-05
5.03548E-07
-9.14778E-05
-0.000203769
-0.000304646
-0.000385885
-0.000440101
-0.0004542
-0.00043238
-0.000386053
-0.000306996
-0.00018732
-3.99481E-05
8.37568E-05
0.000136126
0.000138476
0.000137469
0.000146197
0.000161975
0.000173724
0.000188159
0.000198566
0.000182116
0.000139483
9.24849E-05
5.28725E-05
1.67849E-05
-1.76242E-05
-4.80049E-05
-7.50286E-05
-9.8024E-05
-0.000122866
-0.000166674
-0.000225422
-0.000278126
-0.000312367
-0.000328649
-0.000321431
-0.000277455
-0.000203265
-0.000115145
-2.09812E-05
7.50286E-05
0.000179431
0.000289876
0.000382528
0.00044094
0.000447318
0.0003738
0.000250599
0.000131426
2.97093E-05
-5.58938E-05
-0.000137133
-0.000201251
-0.000215686
-0.000192187
-0.000154589
-0.000104402
-6.22721E-05
-4.448E-05
-3.15557E-05
-1.39315E-05
5.20333E-06
4.11231E-05
0.000100877
0.00017171
0.000237507
0.000292561
0.000331502
0.000337545
0.00030901
0.000250935
0.000176745
8.96315E-05
-2.18204E-06
-7.73785E-05
-0.000151736
-0.000227268
-0.000278462
-0.000305653
-0.000323781
-0.000323613
-0.000290883
-0.000234989
-0.000165667
-8.66102E-05
-3.02129E-06
7.77142E-05
0.000151904
0.000208972
0.000224079
0.000193194
0.000152575
0.000138811
0.000145525
0.000147372
0.000136126
9.28206E-05
-5.03548E-07
-0.000126558
-0.000270237
-0.000397467
-0.000471992
-0.000492805
-0.000470314
-0.000407202
-0.000313039
-0.000194537
-5.20333E-05
0.000117998
0.000307332
0.000507073
0.000692714
0.000833036
0.000931731
0.000972015
0.000898161
0.000706813
0.000454032
0.000196384
-4.28016E-05
-0.000247578
-0.000398642
-0.000462425
-0.000438422
-0.000358358
-0.000247745
-0.00012723
-2.48417E-05
6.39506E-05
0.000156603
0.000237842
0.000271412
0.000243549
0.000183124
0.000121691
4.68299E-05
-4.41443E-05
-0.00012958
-0.000208972
-0.000308003
-0.000408713
-0.000476188
-0.000506737
-0.000501701
-0.000461418
-0.000393774
-0.000306828
-0.000200076
-7.30144E-05
7.06645E-05
0.000202594
0.000284504
0.000309682
0.000303304
0.000305989
0.000300282
0.000254292
0.00019588
0.000137133
3.94446E-05
-0.000121019
-0.0003075
-0.000444129
-0.00049633
-0.000488441
-0.000445975
-0.000357855
-0.000214679
-3.5584E-05
0.000169024
0.000379507
0.000543664
0.000624231
0.000634974
0.000606439
0.000553735
0.000481895
0.000387564
0.000271748
0.000147875
1.81277E-05
-0.000128573
-0.000261341
-0.000337041
-0.000353994
-0.000340566
-0.000315053
-0.000267552
-0.000197559
-0.000117662
-2.92058E-05
6.49577E-05
0.000160296
0.000215351
0.000166003
1.91348E-05
-0.00016231
-0.000352651
-0.000528222
-0.00066804
-0.000740887
-0.00070312
-0.000573205
-0.000377661
-0.000130587
0.000140154
0.000394614
0.000605097
0.00077261
0.000890105
0.000930892
0.000898497
0.000815915
0.000690028
0.000536278
0.000382864
0.000248249
0.000142
4.71656E-05
-5.87472E-05
-0.000164996
-0.000249928
-0.000312367
-0.000359869
-0.000378164
-0.000355505
-0.000298939
-0.000228107
-0.00015375
-7.73785E-05
-4.19623E-06
4.95155E-05
8.40925E-05
0.00010457
0.000108934
6.8986E-05
-2.31632E-05
-0.000124041
-0.000197559
-0.000250935
-0.000320088
-0.000392935
-0.000423148
-0.00039411
-0.000321431
-0.000225757
-0.00012018
-1.12459E-05
9.98703E-05
0.000203265
0.000289876
0.000355001
0.0003785
0.000363729
0.000348287
0.00032546
0.000243381
9.24849E-05
-9.78561E-05
-0.000285512
-0.000437751
-0.000551049
-0.000576562
-0.000468635
-0.000248249
1.30922E-05
0.000253284
0.000429023
0.000525872
0.000573037
0.000592004
0.000581094
0.000535607
0.000473503
0.000406699
0.000334188
0.000249424
0.000124712
-8.56031E-06
-0.000105074
-0.000174563
-0.000224582
-0.000250095
-0.000256641
-0.000246571
-0.000198566
-0.000103899
1.0071E-05
0.000105074
0.000152575
0.000153246
0.000129915
0.000106584
7.77142E-05
4.07874E-05
5.53902E-06
-2.6688E-05
-5.4551E-05
-7.36858E-05
-9.19814E-05
-0.000139147
-0.000231632
-0.000336034
-0.000413748
-0.000450507
-0.00044564
-0.000413245
-0.000362554
-0.000289876
-0.000215686
-0.0001467
-6.76432E-05
3.74304E-05
0.000173556
0.000313375
0.000403677
0.000429526
0.000419455
0.00037464
0.000310689
0.000258991
0.000192859
9.61776E-05
-3.35698E-07
-7.21752E-05
-0.000125048
-0.000165667
-0.000191348
-0.000211322
-0.000235996
-0.000249592
-0.000217868
-0.000128573
-1.04067E-05
9.56741E-05
0.000163989
0.000195209
0.000208637
0.000214008
0.000214679
0.000179767
6.83146E-05
-7.36858E-05
-0.000169863
-0.000202594
-0.000201251
-0.000190509
-0.000163989
-0.000113298
-4.39765E-05
2.92058E-05
9.65133E-05
0.000149722
0.000181109
0.000202594
0.000224918
0.000237171
0.000236164
0.00022945
0.000207965
0.000161639
9.91989E-05
3.13878E-05
-2.29953E-05
-6.66362E-05
-0.000113802
-0.00015375
-0.000174228
-0.000176242
-0.000159625
-0.000124208
-8.84565E-05
-8.02319E-05
-0.000121523
-0.000175906
-0.000180941
-0.000121355
-2.4506E-05
7.36858E-05
0.000146197
0.000186984
0.000196216
0.000175738
0.000152911
0.000156603
0.000194034
0.000249592
0.000279805
0.000251942
0.000168521
5.53903E-05
-5.69009E-05
-0.000178088
-0.000327474
-0.000473838
-0.000553231
-0.000558267
-0.000521508
-0.000426841
-0.000232639
5.4551E-05
0.000357015
0.000600061
0.00075314
0.000839078
0.000883055
0.000880705
0.00081088
0.000651759
0.000408042
0.000152743
-3.6759E-05
-0.000151232
-0.000225254
-0.000271412
-0.000283497
-0.000270573
-0.000241032
-0.00019823
-0.000155764
-0.000125048
-0.00010692
-9.85275E-05
-9.71847E-05
-9.93667E-05
-0.000107927
-0.00012639
-0.000155596
-0.000189166
-0.000216861
-0.000239857
-0.000249256
-0.000241871
-0.000234821
-0.00023415
-0.000216526
-0.00017171
-0.000112963
-5.4551E-05
-6.54612E-06
2.93736E-05
5.80758E-05
8.5771E-05
0.000111955
0.000131762
0.000144518
0.000154589
0.000159625
0.000153246
0.000132937
0.000103731
5.72366E-05
-9.90311E-06
-7.43572E-05
-0.000120012
-0.000158282
-0.000194369
-0.000218036
-0.000223407
-0.000212497
-0.000178759
-0.000125048
-6.73075E-05
-1.72885E-05
3.60876E-05
0.000103227
0.000176074
0.000241535
0.000274769
0.000273762
0.000264195
0.000263859
0.000267048
0.000246235
0.000198566
0.000137469
3.50805E-05
-0.000101884
-0.000237003
-0.000358526
-0.000441611
-0.000464775
-0.000441611
-0.000388571
-0.000292897
-0.000134447
5.22011E-05
0.000229282
0.000396628
0.00055172
0.000672236
0.00073904
0.000742397
0.000686671
0.000590661
0.000462425
0.000296925
0.000109941
-6.32792E-05
-0.000196384
-0.000278294
-0.000305653
-0.000285679
-0.000226429
-0.00014435
-8.77851E-05
-7.08324E-05
-6.1265E-05
-6.93217E-05
-0.000103563
-0.000142168
-0.000188998
-0.000232639
-0.000249256
-0.000229114
-0.000183291
-0.000121691
-3.94446E-05
7.92248E-05
0.000237507
0.000398642
0.000506737
0.000525368
0.000458732
0.000346944
0.000233143
0.000111284
-4.17945E-05
-0.000206455
-0.00032781
-0.000371115
-0.00036994
-0.000370275
-0.000375479
-0.000339223
-0.000232136
-8.54353E-05
5.77401E-05
0.000183459
0.000276448
0.000324453
0.000333516
0.000305318
0.000238849
0.000146868
4.98512E-05
-4.09552E-05
-0.000109773
-0.000151232
-0.000182116
-0.000226764
-0.000297261
-0.000379339
-0.000450507
-0.000509758
-0.000557092
-0.000549203
-0.000481224
-0.000379339
-0.000230289
-4.12909E-05
0.000139483
0.000301289
0.000461753
0.000616175
0.000740383
0.00081088
0.00081004
0.000749783
0.00064303
0.000499016
0.000331838
0.00015761
1.29244E-05
-8.50996E-05
-0.000152239
-0.000195209
-0.00020293
-0.000175235
-0.000127733
-7.67071E-05
-3.84375E-05
-2.18204E-05
-2.76951E-05
-5.4551E-05
-8.39246E-05
-9.38277E-05
-8.89601E-05
-9.0135E-05
-0.000108263
-0.00013109
-0.000134951
-0.000118334
-9.6849E-05
-7.80499E-05
-6.26078E-05
-5.30404E-05
-4.64942E-05
-3.57519E-05
-1.7792E-05
-4.19623E-06
5.03548E-07
7.55322E-06
2.3331E-05
2.70237E-05
-2.1149E-05
-0.000104906
-0.00018262
-0.000230121
-0.000253117
-0.000267048
-0.000268391
-0.000230625
-0.000165331
-8.44282E-05
1.8967E-05
0.000136797
0.00025127
0.000347616
0.000420798
0.000449668
0.000395621
0.000268391
0.00012874
4.53193E-06
-0.000104234
-0.000181613
-0.000219211
-0.000221057
-0.000182788
-0.000112459
-2.09812E-05
8.87922E-05
0.000198566
0.000283162
0.000333516
0.00034258
0.000319081
0.000279805
0.000231464
0.000170367
0.000122362
0.000105745
9.48348E-05
5.01869E-05
-2.6688E-05
-9.50027E-05
-0.000133944
-0.000161639
-0.000192859
-0.000217365
-0.00022005
-0.00020058
-0.00017641
-0.000150561
-0.000121355
-9.28206E-05
-6.91539E-05
-5.25368E-05
-6.05936E-05
-9.28206E-05
-0.000139818
-0.000174395
-0.000213001
-0.000295079
-0.000395453
-0.000484245
-0.00055642
-0.000578073
-0.000517311
-0.000347448
-6.39506E-05
0.000290883
0.000641688
0.000927367
0.001121736
0.001213718
0.001217411
0.001167727
0.001055268
0.000850156
0.000588983
0.000319081
6.09293E-05
-0.000172885
-0.000379507
-0.000528054
-0.000598383
-0.000591333
-0.000517815
-0.000398474
-0.000262348
-0.000134112
-4.31373E-05
-8.22461E-06
-5.87472E-06
-4.19623E-06
7.88891E-06
3.50805E-05
6.83146E-05
9.56741E-05
9.78561E-05
6.1265E-05
1.17494E-06
-6.47898E-05
-0.000154253
-0.000258991
-0.00033167
-0.000349462
-0.000316396
-0.000255802
-0.000186984
-0.000110445
-2.71916E-05
5.75723E-05
0.000132601
0.000189166
0.000230793
0.000250599
0.000238346
0.00020444
0.000158282
9.97024E-05
3.84375E-05
-1.09102E-05
-5.47189E-05
-9.26528E-05
-0.000108934
-0.000107591
-9.41634E-05
-6.36149E-05
-2.23239E-05
1.49386E-05
3.60876E-05
4.17945E-05
5.03548E-05
6.6804E-05
7.11681E-05
5.35439E-05
2.19882E-05
-2.97093E-05
-8.74495E-05
-0.000128573
-0.000146197
-0.000147875
-0.000140322
-0.000119173
-8.25818E-05
-3.87732E-05
-7.21752E-06
7.88891E-06
2.03098E-05
3.50805E-05
4.26337E-05
3.74304E-05
2.6688E-05
1.71206E-05
1.42672E-05
3.13878E-05
6.41184E-05
9.08064E-05
0.000101549
8.37568E-05
3.86053E-06
-0.000114977
-0.000230625
-0.000333349
-0.000429023
-0.000494652
-0.000473671
-0.000344091
-0.000150896
5.99222E-05
0.000279133
0.000494987
0.000685328
0.000829679
0.000891447
0.000850828
0.00071487
0.000489952
0.000225422
-7.21752E-06
-0.000172717
-0.000271244
-0.000310353
-0.000304646
-0.000263355
-0.000199573
-0.000136461
-8.34211E-05
-3.03807E-05
2.93736E-05
8.15747E-05
0.000108095
0.000120348
0.00012874
0.000114473
6.39506E-05
-1.14137E-05
-9.28206E-05
-0.000154086
-0.000179599
-0.000176074
-0.000145861
-9.33242E-05
-3.77661E-05
7.72107E-06
3.77661E-05
6.73075E-05
0.000118669
0.000177081
0.00021149
0.000203937
0.000151232
6.36149E-05
-2.76951E-05
-9.81918E-05
-0.000139147
-0.00015761
-0.000162478
-0.000154253
-0.000130251
-9.24849E-05
-4.24659E-05
7.21752E-06
2.73594E-05
1.99741E-05
-1.0071E-06
-2.53452E-05
-3.84375E-05
-3.57519E-05
-2.73594E-05
-1.82956E-05
-2.65202E-05
-5.60616E-05
-8.94636E-05
-0.000103899
-9.95346E-05
-9.97024E-05
-9.98703E-05
-8.72816E-05
-7.63714E-05
-8.37568E-05
-8.97993E-05
-4.9012E-05
4.81727E-05
0.000169024
0.000272419
0.000342916
0.000394949
0.000410056
0.000377157
0.000322103
0.000268391
0.000205951
0.000126726
2.90379E-05
-5.82437E-05
-0.000125048
-0.000208972
-0.000296757
-0.000319753
-0.000264698
-0.000175738
-7.9057E-05
2.09812E-05
0.000101884
0.0001514
0.000179095
0.000205951
0.000240864
0.000284337
0.000320424
0.000315389
0.000251606
0.000150225
4.41443E-05
-5.01869E-05
-0.000137469
-0.000222568
-0.000286854
-0.000339895
-0.000389746
-0.000423484
-0.000439765
-0.000436744
-0.000398474
-0.000313207
-0.000191684
-5.22011E-05
9.29885E-05
0.000232471
0.000348287
0.000429526
0.000476524
0.000489952
0.000465782
0.000396963
0.000291722
0.000163653
3.18914E-05
-8.09033E-05
-0.000162982
-0.000198398
-0.000195544
-0.000181445
-0.000161639
-0.00013193
-9.91989E-05
-8.62745E-05
-8.22461E-05
-5.97543E-05
-2.80308E-05
1.17494E-06
3.3402E-05
6.78111E-05
8.64424E-05
7.10002E-05
3.5584E-05
1.64492E-05
2.34989E-05
4.59907E-05
7.63714E-05
0.000103563
0.000108263
8.94636E-05
6.16007E-05
3.27306E-05
7.04967E-06
-1.02388E-05
-3.07164E-05
-6.83146E-05
-0.000108598
-0.00014519
-0.000181781
-0.000211322
-0.000238849
-0.000256641
-0.000241032
-0.000210986
-0.000170199
-0.000109102
-3.64233E-05
3.96124E-05
0.000123705
0.000210651
0.000292561
0.000368765
0.000420127
0.000422141
0.000360372
0.000256306
0.000156268
7.67071E-05
1.46029E-05
-2.61845E-05
-4.26337E-05
-4.11231E-05
-3.50805E-05
-2.48417E-05
-2.03098E-05
-2.36667E-05
-2.76951E-05
-3.10521E-05
-3.07164E-05
-3.44091E-05
-4.93477E-05
-5.18654E-05
-3.47448E-05
-3.94446E-05
-9.38277E-05
-0.000173053
-0.000244556
-0.000287694
-0.000287358
-0.000242542
-0.000161303
-5.53903E-05
5.89151E-05
0.000160967
0.000238178
0.000282155
0.000304311
0.000316732
0.000320424
0.000308675
0.000277791
0.000220722
0.000153582
8.81208E-05
2.26596E-05
-2.53452E-05
-4.3473E-05
-6.61326E-05
-0.000124208
-0.000209644
-0.000295918
-0.000363058
-0.000388907
-0.000350805
-0.000254963
-0.000147875
-5.05226E-05
3.57519E-05
0.000105913
0.000167681
0.000247578
0.000335531
0.000386557
0.00036759
0.000292393
0.000201923
0.000120684
6.10971E-05
2.16526E-05
-6.21042E-06
-2.06455E-05
-2.60166E-05
-6.29435E-05
-0.000170871
-0.000347951
-0.000551385
-0.000712688
-0.000782681
-0.000751965
-0.000622217
-0.000407538
-0.000145525
0.000118669
0.000355673
0.000559442
0.000734005
0.000875334
0.000963622
0.000982757
0.000910246
0.000768582
0.000604089
0.000446143
0.000286519
0.000116991
-2.85344E-05
-0.000124041
-0.000187823
-0.000221057
-0.000219043
-0.000202426
-0.000185473
-0.000164996
-0.000142504
-0.000137636
-0.000147539
-0.000143343
-0.000116655
-9.48348E-05
-0.000109773
-0.000154757
-0.000202258
-0.000235492
-0.000271916
-0.000323278
-0.000378836
-0.000408545
-0.000390921
-0.000344762
-0.000288533
-0.0002177
-0.000114977
1.72885E-05
0.000149554
0.000234318
0.000240528
0.000203265
0.000173053
0.000166003
0.000186481
0.000234653
0.00028954
0.000328649
0.000337881
0.000302632
0.000206622
6.8986E-05
-6.09293E-05
-0.000161807
-0.000250599
-0.000321767
-0.00033167
-0.000274937
-0.000189166
-9.6849E-05
5.03548E-06
0.00011632
0.000233143
0.000348287
0.000430533
0.000451682
0.000400992
0.000295247
0.000181613
8.74495E-05
1.12459E-05
-5.72366E-05
-0.000107088
-0.000124544
-0.000116152
-9.63455E-05
-8.00641E-05
-7.36858E-05
-7.40215E-05
-7.53643E-05
-7.77142E-05
-8.20783E-05
-8.44282E-05
-8.4596E-05
-8.50996E-05
-9.08064E-05
-0.000115145
-0.000154086
-0.000190677
-0.000226596
-0.000287022
-0.000382864
-0.000462257
-0.00047921
-0.000431876
-0.000337713
-0.000203937
-3.3402E-05
0.000155596
0.000335531
0.000483909
0.000589319
0.000649073
0.000665858
0.000645045
0.000605432
0.000548363
0.000448997
0.000304311
0.000148547
1.2253E-05
-0.00010222
-0.000195041
-0.000246067
-0.000247578
-0.000212833
-0.000154086
-9.41634E-05
-5.55581E-05
-4.31373E-05
-4.16266E-05
-4.3473E-05
-4.17945E-05
-4.58228E-05
-6.66362E-05
-8.89601E-05
-9.26528E-05
-8.71138E-05
-7.93927E-05
-7.93927E-05
-9.19814E-05
-9.11421E-05
-6.16007E-05
-1.12459E-05
4.36408E-05
8.71138E-05
0.000120684
0.000141161
0.000145525
0.000120012
5.01869E-05
-5.52224E-05
-0.000184634
-0.000333013
-0.000471992
-0.000582773
-0.000627756
-0.000560616
-0.000384878
-0.0001514
8.37568E-05
0.000283833
0.000444297
0.000567834
0.000660151
0.000720912
0.000750118
0.00074374
0.000688685
0.000591333
0.000473838
0.000359701
0.00025362
0.000134112
7.21752E-06
-8.97993E-05
-0.000147204
-0.000191516
-0.000230457
-0.000255299
-0.000263691
-0.000256977
-0.000236164
-0.000203937
-0.000167681
-0.000127733
-7.50286E-05
-1.81277E-05
2.31632E-05
3.52483E-05
2.19882E-05
-9.56741E-06
-4.63264E-05
-7.18395E-05
-8.1239E-05
-8.49317E-05
-8.37568E-05
-7.83856E-05
-7.33501E-05
-7.21752E-05
-7.41894E-05
-7.20073E-05
-6.22721E-05
-5.43832E-05
-5.05226E-05
-5.15297E-05
-5.92508E-05
-6.61326E-05
-7.77142E-05
-0.000116655
-0.000168185
-0.000193866
-0.000188327
-0.000164996
-0.000128573
-9.55062E-05
-8.27497E-05
-8.00641E-05
-6.19364E-05
-1.42672E-05
5.75723E-05
0.000136797
0.000219883
0.000299275
0.000351644
0.000347448
0.000277791
0.00014284
-1.99741E-05
-0.000153582
-0.000238849
-0.00028719
-0.000304646
-0.000278798
-0.000204776
-9.98703E-05
9.23171E-06
9.61776E-05
0.000171038
0.000256306
0.000343252
0.000418112
0.00046041
0.000440269
0.000323949
0.000145525
-2.03098E-05
-0.000128069
-0.00018497
-0.000214679
-0.000208469
-0.000135958
-3.86053E-06
0.000148547
0.000283162
0.000370108
0.000397971
0.000391928
0.000370443
0.000328481
0.000249256
0.000143847
5.55581E-05
-8.89601E-06
-7.93927E-05
-0.000165331
-0.000235996
-0.000264866
-0.000252781
-0.000210147
-0.00015375
-0.000100038
-5.99222E-05
-2.76951E-05
4.53193E-06
2.50095E-05
2.38346E-05
3.35698E-06
-3.23949E-05
-7.43572E-05
-0.000107591
-0.000125887
-0.00012723
-0.000120516
-0.000114305
-0.000106584
-8.67781E-05
-5.62295E-05
-3.32342E-05
-2.4506E-05
-2.97093E-05
-3.57519E-05
-3.45769E-05
-2.43381E-05
-4.86763E-06
1.86313E-05
4.21302E-05
6.49577E-05
8.66102E-05
0.000100374
0.000108934
0.000101213
5.6733E-05
-1.62814E-05
-0.000110277
-0.000209476
-0.00028954
-0.000332342
-0.000356512
-0.000352819
-0.000300114
-0.000207965
-9.50027E-05
2.93736E-05
0.00016701
0.000316732
0.000465782
0.000590326
0.000652934
0.000634974
0.00055172
0.000447318
0.000353658
0.000268223
0.000194873
0.000125216
2.73594E-05
-8.74495E-05
-0.000176913
-0.000232303
-0.000267216
-0.000277455
-0.000258824
-0.000211994
-0.000136294
-4.63264E-05
2.65202E-05
6.73075E-05
8.17426E-05
7.80499E-05
5.95865E-05
2.26596E-05
-5.87472E-06
-1.20851E-05
-1.69528E-05
-2.75273E-05
-4.17945E-05
-6.36149E-05
-9.44991E-05
-0.000134112
-0.000176074
-0.000208301
-0.0002177
-0.000215015
-0.000214847
-0.000216358
-0.000204944
-0.000168185
-0.000118334
-6.21042E-05
1.12459E-05
9.88632E-05
0.000176913
0.000237842
0.000292058
0.000336873
0.000360204
0.000339223
0.00028719
0.000232807
0.00018883
0.000151568
0.000110277
7.10002E-05
4.73335E-05
3.42412E-05
1.82956E-05
-1.35958E-05
-6.19364E-05
-0.000116655
-0.000153918
-0.000161975
-0.000147875
-0.000121187
-9.24849E-05
-7.08324E-05
-5.15297E-05
-2.51774E-05
3.69268E-06
1.81277E-05
1.86313E-05
2.16526E-05
3.47448E-05
2.87022E-05
-6.54612E-06
-3.99481E-05
-5.69009E-05
-6.16007E-05
-6.86503E-05
-6.93217E-05
-3.70947E-05
2.04776E-05
7.2343E-05
0.000101213
0.000117998
0.000135454
0.00015761
0.000177417
0.000179095
0.000148882
8.30854E-05
3.69268E-06
-6.29435E-05
-9.91989E-05
-0.00010927
-0.00011313
-0.000101213
-6.32792E-05
-2.85344E-06
6.05936E-05
0.000110613
0.00013579
0.000132601
0.000112627
8.5771E-05
4.61585E-05
1.84634E-06
-3.32342E-05
-5.25368E-05
-5.42153E-05
-4.11231E-05
-2.53452E-05
-4.07874E-05
-9.04707E-05
-0.000149554
-0.00019353
-0.000215351
-0.000217029
-0.000187152
-0.000134615
-6.93217E-05
1.46029E-05
0.000103563
0.000179095
0.000238346
0.000271077
0.000262348
0.000211658
0.000133104
5.28725E-05
-1.12459E-05
-5.82437E-05
-9.56741E-05
-0.000130419
-0.000155093
-0.000152575
-0.000114473
-4.21302E-05
4.28016E-05
0.000115984
0.000174395
0.000232807
0.000288533
0.00032311
0.000314549
0.00020528
-3.18914E-06
-0.000205615
-0.000341741
-0.000415259
-0.000430365
-0.000389914
-0.000303975
-0.000200412
-9.98703E-05
-4.53193E-06
8.97993E-05
0.000184298
0.000275105
0.000352987
0.000410056
0.000442283
0.00043859
0.000391928
0.000308675
0.000214679
0.000122698
1.35958E-05
-0.000112963
-0.000216861
-0.000266545
-0.000270237
-0.000248585
-0.000210147
-0.000143847
-5.69009E-05
2.90379E-05
0.000105913
0.000169024
0.000206622
0.000205951
0.000164324
0.000117998
0.000108598
0.000128069
0.00012874
8.5771E-05
1.87991E-05
-4.59907E-05
-0.00010692
-0.000155932
-0.000187488
-0.000217365
-0.000239521
-0.000239857
-0.00021149
-0.000154589
-8.27497E-05
-7.04967E-06
5.32082E-05
8.74495E-05
9.6849E-05
8.81208E-05
7.20073E-05
5.53903E-05
4.06195E-05
3.25628E-05
1.57778E-05
-1.39315E-05
-4.2298E-05
-6.76432E-05
-9.51705E-05
-0.000118669
-0.000126223
-0.000112123
-8.07355E-05
-4.0116E-05
2.85344E-06
1.93027E-05
-1.67849E-06
-4.28016E-05
-7.88891E-05
-9.28206E-05
-0.00010071
-0.000122026
-0.000154925
-0.000165667
-0.000144183
-0.00011632
-9.31563E-05
-4.24659E-05
6.22721E-05
0.000185473
0.00028249
0.000345602
0.000377997
0.000388907
0.000388739
0.000379843
0.000358694
0.000321599
0.000266712
0.000197223
0.000137804
0.000100877
6.96574E-05
2.87022E-05
-1.29244E-05
-4.59907E-05
-7.26787E-05
-9.65133E-05
-0.000111788
-0.000112459
-0.000102892
-8.5771E-05
-6.69719E-05
-4.93477E-05
-3.23949E-05
-1.81277E-05
-7.88891E-06
-3.35698E-07
-1.67849E-07
-6.54612E-06
-1.37636E-05
-2.21561E-05
-3.15557E-05
-3.96124E-05
-3.84375E-05
-2.19882E-05
-7.38537E-06
-2.09812E-05
-5.53903E-05
-9.95346E-05
-0.000127733
-0.000122698
-0.000108766
-0.000101549
-9.90311E-05
-9.16457E-05
-7.46929E-05
-4.48157E-05
-1.15816E-05
1.25887E-05
3.70947E-05
6.51255E-05
8.44282E-05
8.71138E-05
9.11421E-05
0.000108766
0.000119173
8.54353E-05
-7.55322E-06
-0.000111284
-0.000181445
-0.000227436
-0.000256306
-0.000257313
-0.0002224
-0.000153246
-5.85794E-05
5.22011E-05
0.000158618
0.000227771
0.00026537
0.000285847
0.000285847
0.000272755
0.000251606
0.000221057
0.000186481
0.0001514
0.000114977
7.9057E-05
4.75013E-05
1.69528E-05
-1.67849E-05
-4.07874E-05
-3.52483E-05
-6.54612E-06
7.72107E-06
-2.18204E-06
-1.79599E-05
-3.37377E-05
-3.77661E-05
-1.8967E-05
1.59457E-05
5.22011E-05
7.26787E-05
6.69719E-05
6.09293E-05
6.42863E-05
4.58228E-05
-3.3402E-05
-0.00015996
-0.000268391
-0.000322606
-0.000339391
-0.000315724
-0.000247913
-0.0001514
-3.86053E-05
8.35889E-05
0.000195041
0.000281819
0.000332509
0.000345937
0.000343587
0.000334859
0.000316732
0.000279133
0.000220554
0.000144015
6.96574E-05
1.32601E-05
-3.37377E-05
-7.28466E-05
-9.36599E-05
-9.21492E-05
-8.22461E-05
-8.66102E-05
-0.00012639
-0.000190677
-0.00024271
-0.000266209
-0.000270069
-0.000267048
-0.000245731
-0.000190005
-0.000109941
-3.07164E-05
2.92058E-05
6.96574E-05
0.000103731
0.000137636
0.000174899
0.000214008
0.000249592
0.000264195
0.000246738
0.00019588
0.000115145
3.10521E-05
-2.97093E-05
-7.46929E-05
-0.000122362
-0.000161303
-0.000180941
-0.00018732
-0.000190845
-0.000195041
-0.000194202
-0.000177417
-0.000145022
-0.000105745
-6.42863E-05
-1.05745E-05
6.1265E-05
0.000150225
0.000238178
0.000302968
0.00034023
0.000343587
0.000314549
0.000275105
0.000238514
0.00018883
0.000120684
4.0116E-05
-3.79339E-05
-9.85275E-05
-0.000151568
-0.000202258
-0.000228275
-0.000212161
-0.000162646
-0.00010457
-6.17685E-05
-4.04517E-05
-2.97093E-05
-6.21042E-06
3.47448E-05
8.29175E-05
0.000123873
0.000146532
0.000150896
0.000139483
0.000115816
8.91279E-05
6.93217E-05
5.42153E-05
3.18914E-05
-5.03548E-07
-3.91089E-05
-7.26787E-05
-8.99672E-05
-9.23171E-05
-8.74495E-05
-7.82178E-05
-6.59648E-05
-5.32082E-05
-4.91798E-05
-5.82437E-05
-7.04967E-05
-6.86503E-05
-4.76692E-05
-2.4506E-05
-1.7792E-05
-2.16526E-05
-1.57778E-05
3.18914E-06
1.59457E-05
7.88891E-06
-2.04776E-05
-5.7908E-05
-9.6849E-05
-0.000133776
-0.000153582
-0.000144518
-0.000106081
-4.17945E-05
4.38086E-05
0.000134112
0.000210651
0.000265705
0.000308339
0.000341238
0.000350134
0.000319417
0.000245563
0.000151568
4.98512E-05
-4.54871E-05
-0.000118334
-0.000168017
-0.000218372
-0.000282994
-0.000345266
-0.0003832
-0.000377325
-0.00031841
-0.000200076
-3.54162E-05
0.000121691
0.000237339
0.000324788
0.00040032
0.00046041
0.00050573
0.000528222
0.000501198
0.000420798
0.000313207
0.000211826
0.000127062
5.65652E-05
6.21042E-06
-3.17235E-05
-6.83146E-05
-0.000105577
-0.000133104
-0.000155596
-0.000204273
-0.000274266
-0.000322271
-0.000337377
-0.000332509
-0.000309682
-0.000260166
-0.000184131
-8.84565E-05
1.59457E-05
0.000106584
0.000170367
0.000212665
0.000241535
0.000250599
0.000237003
0.000201923
0.000129412
1.99741E-05
-8.56031E-05
-0.000158618
-0.000203098
-0.000225422
-0.000228611
-0.00021619
-0.000192187
-0.000152575
-9.24849E-05
-1.76242E-05
5.89151E-05
0.000118502
0.000148547
0.000158618
0.00016231
0.000154589
0.000135119
0.000114305
9.36599E-05
5.35439E-05
-8.05676E-06
-6.52934E-05
-0.000104906
-0.000125383
-0.000126726
-0.000113634
-9.21492E-05
-6.73075E-05
-3.72625E-05
3.86053E-06
5.35439E-05
0.000105074
0.000146532
0.000166339
0.000159625
0.000117662
5.58938E-05
3.69268E-06
-4.04517E-05
-8.20783E-05
-0.000114305
-0.000125719
-0.000105577
-5.47189E-05
1.42672E-05
7.43572E-05
0.00011397
0.000146029
0.000183795
0.000217029
0.000225422
0.000207294
0.000166339
0.000114641
7.55322E-05
4.19623E-05
-1.72885E-05
-8.91279E-05
-0.000141329
-0.000163317
-0.000159625
-0.000138476
-0.000115984
-9.6849E-05
-7.67071E-05
-4.7837E-05
-4.86763E-06
3.18914E-05
4.38086E-05
2.90379E-05
-1.29244E-05
-6.66362E-05
-0.000113634
-0.000151232
-0.000181445
-0.00019823
-0.000208804
-0.000209812
-0.000184298
-0.000120516
-2.08133E-05
8.17426E-05
0.000159457
0.000221225
0.000267048
0.000289036
0.000294911
0.000275441
0.000219379
0.000156939
9.48348E-05
1.64492E-05
-6.63005E-05
-0.000128405
-0.000171206
-0.000206958
-0.000224582
-0.000206287
-0.000145861
-4.3473E-05
7.48608E-05
0.00017171
0.000237507
0.000294575
0.000355673
0.000404685
0.000416434
0.000380514
0.000310018
0.000230121
0.000158953
8.96315E-05
1.30922E-05
-5.28725E-05
-8.82887E-05
-8.71138E-05
-6.42863E-05
-4.5655E-05
-6.04257E-05
-0.00011632
-0.000197559
-0.000266377
-0.000297597
-0.000295583
-0.000265705
-0.000205615
-0.000122026
-2.58488E-05
7.26787E-05
0.000160967
0.000224414
0.000258152
0.000265705
0.000241535
0.000177081
9.0135E-05
6.54612E-06
-6.36149E-05
-0.00012723
-0.000183459
-0.000222065
-0.000238178
-0.000226764
-0.000189837
-0.000144183
-0.00010692
-7.30144E-05
-2.85344E-05
2.93736E-05
9.26528E-05
0.000151232
0.000187823
0.00019588
0.000179431
0.000148882
0.00012253
9.70169E-05
5.27047E-05
-1.35958E-05
-8.39246E-05
-0.000126055
-0.000121187
-9.21492E-05
-7.11681E-05
-6.05936E-05
-5.25368E-05
-5.22011E-05
-5.60616E-05
-5.52224E-05
-4.51514E-05
-2.16526E-05
1.04067E-05
3.84375E-05
5.55581E-05
5.85794E-05
4.86763E-05
3.27306E-05
2.48417E-05
2.93736E-05
2.19882E-05
-1.04067E-05
-3.91089E-05
-4.51514E-05
-3.74304E-05
-2.46738E-05
-1.79599E-05
-1.96384E-05
-2.03098E-05
-1.4435E-05
-9.23171E-06
-3.18914E-06
1.05745E-05
3.81018E-05
8.40925E-05
0.000137469
0.000187488
0.000230793
0.000246067
0.000225422
0.000195544
0.000169024
0.000144183
0.000137469
0.000144854
0.000134783
0.000106249
7.40215E-05
4.0116E-05
-5.03548E-06
-5.52224E-05
-9.55062E-05
-0.000118334
-0.000132097
-0.000144183
-0.000148882
-0.000137301
-0.000110277
-7.53643E-05
-4.04517E-05
-1.09102E-05
1.72885E-05
4.81727E-05
7.85535E-05
9.41634E-05
8.37568E-05
4.64942E-05
1.17494E-06
-3.37377E-05
-5.28725E-05
-6.1265E-05
-8.61067E-05
-0.000144183
-0.000210819
-0.000252781
-0.000255634
-0.000230625
-0.000185473
-0.000114305
-2.50095E-05
7.36858E-05
0.000166842
0.000234318
0.000269062
0.000279133
0.000278126
0.00026302
0.000221729
0.000162646
0.00010927
6.76432E-05
3.20592E-05
-5.53902E-06
-4.38086E-05
-7.31823E-05
-0.000115312
-0.000189502
-0.000257313
-0.000279469
-0.000263188
-0.000228443
-0.000182116
-0.000128237
-6.4622E-05
1.39315E-05
0.000103059
0.000192355
0.000268391
0.000312703
0.000310689
0.000280476
0.000249592
0.000214008
0.000163653
9.36599E-05
-1.17494E-05
-0.000148882
-0.000283162
-0.000378164
-0.000410559
-0.000380011
-0.000305821
-0.000199741
-7.58679E-05
3.81018E-05
0.000127062
0.000199237
0.000267384
0.000327474
0.000364233
0.000384543
0.00040737
0.000394278
0.000303304
0.000164324
3.3402E-05
-7.40215E-05
-0.000155932
-0.000196216
-0.000196048
-0.000177752
-0.000133776
-6.07614E-05
8.39246E-06
4.54871E-05
6.16007E-05
8.10712E-05
0.000108263
0.000129915
0.000144518
0.000150896
0.00013814
0.000103899
5.89151E-05
1.93027E-05
-6.21042E-06
-2.23239E-05
-3.97803E-05
-6.66362E-05
-9.6849E-05
-0.000110445
-0.000107591
-0.000120012
-0.000149386
-0.000176745
-0.000198062
-0.000207797
-0.00019353
-0.000149889
-8.47639E-05
-1.561E-05
3.97803E-05
7.50286E-05
0.000108263
0.000148043
0.000183627
0.000200244
0.000198398
0.000173053
0.000120012
4.81727E-05
-4.71656E-05
-0.000144686
-0.000212329
-0.000252613
-0.000272084
-0.000274937
-0.000279973
-0.000274433
-0.000244221
-0.000192859
-0.000112291
-3.18914E-06
0.000133104
0.000280308
0.000397299
0.000456886
0.000463767
0.000425162
0.000352987
0.000267048
0.000184802
0.00011313
5.15297E-05
5.70687E-06
-3.32342E-05
-7.33501E-05
-0.000110948
-0.000138643
-0.000160296
-0.000174731
-0.000170367
-0.000161303
-0.000168353
-0.000177417
-0.000178088
-0.000170535
-0.000152575
-0.000111788
-2.63523E-05
9.29885E-05
0.000211322
0.000300618
0.000350637
0.000371115
0.000373129
0.000350301
0.000288365
0.000196216
0.000102556
2.93736E-05
-2.83665E-05
-8.99672E-05
-0.000145861
-0.000186313
-0.000207126
-0.00020914
-0.000194202
-0.000154589
-9.61776E-05
-3.30663E-05
2.87022E-05
7.58679E-05
9.0135E-05
7.95605E-05
7.03288E-05
7.77142E-05
8.2414E-05
6.74754E-05
3.10521E-05
-1.37636E-05
-5.47189E-05
-9.60098E-05
-0.000153414
-0.000209644
-0.0002318
-0.000232807
-0.000244221
-0.000262516
-0.000267384
-0.000243214
-0.000192355
-0.000120516
-2.09812E-05
0.000109773
0.000248753
0.000368429
0.000439261
0.000426841
0.000340902
0.000238849
0.00015761
8.96315E-05
2.46738E-05
-3.6759E-05
-7.60357E-05
-7.33501E-05
-5.57259E-05
-6.37827E-05
-8.61067E-05
-9.28206E-05
-6.73075E-05
-2.36667E-05
2.76951E-05
8.17426E-05
0.000139483
0.00020444
0.000269062
0.000319417
0.000338888
0.000308003
0.000232471
0.000152743
9.61776E-05
6.8986E-05
5.35439E-05
2.1149E-05
-1.7792E-05
-4.11231E-05
-5.72366E-05
-6.64683E-05
-6.6804E-05
-6.86503E-05
-7.73785E-05
-8.56031E-05
-9.88632E-05
-0.000142336
-0.000195041
-0.000222904
-0.000218204
-0.000187152
-0.000141665
-9.73526E-05
-5.38796E-05
-2.3331E-05
-5.65652E-05
-0.000157275
-0.000284169
-0.00038706
-0.000424323
-0.000379004
-0.000261006
-0.00011632
2.65202E-05
0.000165667
0.000284504
0.000359701
0.00039025
0.000401999
0.000405356
0.000399985
0.000380514
0.000347616
0.000312367
0.000280476
0.000248753
0.000199237
0.00014049
0.000100542
8.03998E-05
6.09293E-05
2.65202E-05
-2.18204E-05
