0
0
0
0
0
0
0
0
0
0
0
0
0
0
0
0
0
0
0
0
0
0
0
0
0
0
0
0
0
0
0
0
0
0
0
0
0
0
0
0
0
0
0
0
0
0
0
0
0
0
0
0
0
0
0
0
0
0
0
0
0
0
0
0
0
0
0
0
0
0
0
0
0
0
0
0
0
0
1.30922E-05
1.09102E-05
7.88891E-06
1.14137E-05
1.66171E-05
1.79599E-05
1.52743E-05
1.19173E-05
9.73526E-06
9.23171E-06
1.0071E-05
1.05745E-05
1.05745E-05
1.19173E-05
1.46029E-05
1.51064E-05
1.27565E-05
1.1078E-05
1.05745E-05
1.09102E-05
1.2253E-05
1.30922E-05
1.27565E-05
1.15816E-05
1.05745E-05
9.73526E-06
9.23171E-06
7.88891E-06
6.37827E-06
7.72107E-06
9.23171E-06
1.05745E-05
1.05745E-05
9.56741E-06
8.89601E-06
1.02388E-05
1.04067E-05
8.56031E-06
8.22461E-06
9.39956E-06
8.89601E-06
7.88891E-06
1.05745E-05
1.19173E-05
1.1078E-05
1.02388E-05
1.02388E-05
1.05745E-05
1.05745E-05
1.15816E-05
1.17494E-05
9.73526E-06
7.88891E-06
8.39246E-06
9.23171E-06
9.56741E-06
8.56031E-06
8.22461E-06
6.88182E-06
6.04257E-06
6.88182E-06
7.55322E-06
7.72107E-06
8.22461E-06
8.22461E-06
7.72107E-06
8.39246E-06
8.89601E-06
8.22461E-06
7.21752E-06
7.21752E-06
8.72816E-06
9.90311E-06
8.89601E-06
9.23171E-06
1.12459E-05
1.42672E-05
1.39315E-05
1.25887E-05
1.19173E-05
1.30922E-05
1.32601E-05
1.25887E-05
1.35958E-05
1.39315E-05
1.29244E-05
1.27565E-05
1.17494E-05
8.39246E-06
7.55322E-06
9.90311E-06
1.05745E-05
9.39956E-06
7.55322E-06
7.04967E-06
9.73526E-06
1.32601E-05
1.54421E-05
1.561E-05
1.54421E-05
1.57778E-05
1.67849E-05
1.7792E-05
1.59457E-05
1.2253E-05
1.30922E-05
1.51064E-05
1.27565E-05
1.12459E-05
1.30922E-05
1.52743E-05
1.62814E-05
1.72885E-05
1.61135E-05
1.29244E-05
1.02388E-05
9.06386E-06
1.15816E-05
1.51064E-05
1.59457E-05
1.4435E-05
1.32601E-05
1.15816E-05
1.0071E-05
9.90311E-06
8.56031E-06
8.89601E-06
1.04067E-05
9.23171E-06
9.23171E-06
1.09102E-05
1.19173E-05
1.32601E-05
1.15816E-05
1.02388E-05
1.2253E-05
1.32601E-05
1.2253E-05
1.24208E-05
1.02388E-05
7.04967E-06
8.22461E-06
9.39956E-06
1.05745E-05
1.09102E-05
8.72816E-06
8.56031E-06
1.0071E-05
9.56741E-06
9.23171E-06
8.72816E-06
7.88891E-06
8.56031E-06
1.0071E-05
1.05745E-05
1.12459E-05
1.02388E-05
9.90311E-06
1.15816E-05
1.02388E-05
8.39246E-06
9.56741E-06
1.04067E-05
8.89601E-06
6.88182E-06
4.53193E-06
4.86763E-06
7.72107E-06
1.0071E-05
1.1078E-05
1.19173E-05
1.14137E-05
9.90311E-06
1.04067E-05
1.14137E-05
1.19173E-05
1.15816E-05
1.02388E-05
1.25887E-05
1.69528E-05
1.69528E-05
1.49386E-05
1.39315E-05
1.37636E-05
1.46029E-05
1.39315E-05
1.17494E-05
1.12459E-05
1.39315E-05
1.561E-05
1.40993E-05
1.05745E-05
9.90311E-06
1.20851E-05
1.25887E-05
1.19173E-05
1.12459E-05
1.05745E-05
1.15816E-05
1.25887E-05
1.25887E-05
1.39315E-05
1.39315E-05
1.1078E-05
9.73526E-06
1.05745E-05
8.89601E-06
6.54612E-06
8.39246E-06
1.12459E-05
1.30922E-05
1.05745E-05
9.90311E-06
9.90311E-06
1.04067E-05
9.90311E-06
9.23171E-06
9.56741E-06
9.23171E-06
9.23171E-06
9.06386E-06
7.55322E-06
7.72107E-06
8.22461E-06
9.56741E-06
1.15816E-05
1.29244E-05
1.32601E-05
1.05745E-05
8.89601E-06
1.05745E-05
1.19173E-05
1.05745E-05
9.90311E-06
1.05745E-05
1.12459E-05
1.29244E-05
1.25887E-05
1.12459E-05
1.15816E-05
1.24208E-05
1.42672E-05
1.49386E-05
1.32601E-05
1.14137E-05
1.19173E-05
1.32601E-05
1.39315E-05
1.24208E-05
9.56741E-06
9.06386E-06
1.12459E-05
1.19173E-05
1.15816E-05
1.09102E-05
9.73526E-06
8.89601E-06
9.90311E-06
1.05745E-05
9.56741E-06
9.23171E-06
9.90311E-06
9.90311E-06
9.23171E-06
9.23171E-06
1.0071E-05
1.12459E-05
1.04067E-05
9.39956E-06
9.56741E-06
9.73526E-06
1.17494E-05
1.30922E-05
1.25887E-05
1.2253E-05
1.39315E-05
1.4435E-05
1.39315E-05
1.46029E-05
1.57778E-05
1.52743E-05
1.27565E-05
1.25887E-05
1.32601E-05
1.40993E-05
1.49386E-05
1.46029E-05
1.35958E-05
1.32601E-05
1.19173E-05
9.90311E-06
9.23171E-06
8.56031E-06
8.39246E-06
1.02388E-05
1.24208E-05
1.17494E-05
1.09102E-05
1.19173E-05
1.32601E-05
1.35958E-05
1.12459E-05
9.90311E-06
1.17494E-05
1.52743E-05
1.54421E-05
1.29244E-05
1.29244E-05
1.39315E-05
1.49386E-05
1.561E-05
1.561E-05
1.52743E-05
1.35958E-05
1.35958E-05
1.25887E-05
9.90311E-06
8.89601E-06
1.04067E-05
1.25887E-05
1.37636E-05
1.27565E-05
1.05745E-05
1.02388E-05
9.73526E-06
1.04067E-05
1.19173E-05
1.19173E-05
9.23171E-06
9.56741E-06
1.24208E-05
1.32601E-05
1.32601E-05
1.25887E-05
1.19173E-05
1.25887E-05
1.51064E-05
1.72885E-05
1.7792E-05
1.66171E-05
1.4435E-05
1.29244E-05
1.19173E-05
1.32601E-05
1.32601E-05
1.09102E-05
1.05745E-05
9.56741E-06
7.38537E-06
5.53902E-06
4.69978E-06
5.20333E-06
6.71397E-06
6.88182E-06
5.70687E-06
5.70687E-06
6.37827E-06
7.88891E-06
6.54612E-06
3.35698E-06
3.86053E-06
8.72816E-06
1.2253E-05
1.15816E-05
1.14137E-05
1.05745E-05
1.19173E-05
1.05745E-05
8.56031E-06
9.90311E-06
1.09102E-05
1.04067E-05
1.05745E-05
9.90311E-06
9.39956E-06
9.23171E-06
8.39246E-06
7.21752E-06
7.21752E-06
7.04967E-06
7.21752E-06
9.06386E-06
1.09102E-05
1.37636E-05
1.46029E-05
1.29244E-05
1.19173E-05
1.39315E-05
1.42672E-05
1.19173E-05
1.04067E-05
9.23171E-06
8.89601E-06
9.23171E-06
1.05745E-05
1.19173E-05
1.25887E-05
1.37636E-05
1.35958E-05
1.19173E-05
1.12459E-05
1.19173E-05
1.32601E-05
1.32601E-05
1.30922E-05
9.56741E-06
7.55322E-06
9.06386E-06
9.56741E-06
1.1078E-05
1.24208E-05
1.19173E-05
1.37636E-05
1.49386E-05
1.05745E-05
6.37827E-06
5.70687E-06
8.39246E-06
1.15816E-05
1.12459E-05
9.23171E-06
1.05745E-05
1.39315E-05
1.4435E-05
1.37636E-05
1.39315E-05
1.2253E-05
1.19173E-05
1.20851E-05
1.25887E-05
1.25887E-05
1.02388E-05
8.22461E-06
8.22461E-06
9.23171E-06
9.56741E-06
9.56741E-06
6.88182E-06
5.20333E-06
7.88891E-06
1.2253E-05
1.35958E-05
1.19173E-05
9.73526E-06
7.88891E-06
5.20333E-06
4.19623E-06
7.55322E-06
1.19173E-05
1.46029E-05
1.30922E-05
8.89601E-06
7.38537E-06
9.73526E-06
1.37636E-05
1.59457E-05
1.49386E-05
1.19173E-05
1.09102E-05
1.32601E-05
1.49386E-05
1.24208E-05
1.04067E-05
9.06386E-06
8.89601E-06
1.05745E-05
1.37636E-05
1.51064E-05
1.4435E-05
1.17494E-05
1.17494E-05
1.2253E-05
1.05745E-05
8.89601E-06
8.39246E-06
1.0071E-05
1.14137E-05
9.90311E-06
9.06386E-06
1.02388E-05
9.73526E-06
8.89601E-06
9.23171E-06
8.89601E-06
8.56031E-06
1.14137E-05
1.4435E-05
1.32601E-05
1.2253E-05
1.14137E-05
1.12459E-05
1.12459E-05
1.39315E-05
1.76242E-05
1.91348E-05
1.69528E-05
1.37636E-05
1.05745E-05
1.05745E-05
1.2253E-05
1.2253E-05
1.34279E-05
1.51064E-05
1.42672E-05
1.30922E-05
1.29244E-05
1.17494E-05
1.1078E-05
1.05745E-05
9.90311E-06
1.05745E-05
1.12459E-05
9.90311E-06
9.56741E-06
1.0071E-05
9.73526E-06
1.2253E-05
1.57778E-05
1.52743E-05
1.34279E-05
1.19173E-05
9.23171E-06
8.56031E-06
8.56031E-06
8.56031E-06
7.55322E-06
8.22461E-06
9.23171E-06
9.90311E-06
1.05745E-05
1.04067E-05
1.09102E-05
1.05745E-05
1.0071E-05
1.1078E-05
1.12459E-05
1.12459E-05
1.32601E-05
1.4435E-05
1.30922E-05
1.19173E-05
1.02388E-05
1.05745E-05
1.27565E-05
1.15816E-05
9.23171E-06
8.89601E-06
8.22461E-06
8.89601E-06
9.73526E-06
1.05745E-05
1.15816E-05
1.19173E-05
1.12459E-05
1.14137E-05
1.25887E-05
1.29244E-05
1.46029E-05
1.62814E-05
1.561E-05
1.29244E-05
1.04067E-05
1.05745E-05
1.25887E-05
1.25887E-05
9.23171E-06
7.38537E-06
7.88891E-06
9.23171E-06
9.23171E-06
1.02388E-05
1.09102E-05
9.56741E-06
8.22461E-06
1.05745E-05
1.15816E-05
1.1078E-05
1.25887E-05
1.39315E-05
1.59457E-05
1.59457E-05
1.32601E-05
1.32601E-05
1.59457E-05
1.49386E-05
1.25887E-05
1.2253E-05
1.19173E-05
1.32601E-05
1.42672E-05
1.46029E-05
1.39315E-05
1.29244E-05
1.0071E-05
7.88891E-06
8.89601E-06
1.02388E-05
8.22461E-06
5.20333E-06
2.51774E-06
2.34989E-06
4.86763E-06
6.54612E-06
8.89601E-06
1.05745E-05
1.12459E-05
9.90311E-06
7.04967E-06
6.37827E-06
8.56031E-06
1.05745E-05
9.90311E-06
9.06386E-06
8.89601E-06
8.56031E-06
9.90311E-06
1.25887E-05
1.25887E-05
1.27565E-05
1.25887E-05
1.1078E-05
9.56741E-06
9.56741E-06
1.04067E-05
1.29244E-05
1.40993E-05
1.4435E-05
1.39315E-05
1.24208E-05
1.12459E-05
1.17494E-05
1.25887E-05
1.25887E-05
1.15816E-05
1.1078E-05
1.15816E-05
1.04067E-05
9.73526E-06
1.12459E-05
1.02388E-05
5.87472E-06
6.88182E-06
1.02388E-05
1.05745E-05
9.23171E-06
7.88891E-06
1.09102E-05
1.46029E-05
1.39315E-05
1.17494E-05
1.25887E-05
1.4435E-05
1.39315E-05
1.24208E-05
1.15816E-05
1.27565E-05
1.40993E-05
1.42672E-05
1.2253E-05
1.05745E-05
1.09102E-05
1.51064E-05
1.66171E-05
1.57778E-05
1.52743E-05
1.4435E-05
1.42672E-05
1.47707E-05
1.40993E-05
1.35958E-05
1.25887E-05
1.05745E-05
1.02388E-05
1.37636E-05
1.66171E-05
1.59457E-05
1.57778E-05
1.59457E-05
1.62814E-05
1.52743E-05
1.32601E-05
1.42672E-05
1.57778E-05
1.51064E-05
1.2253E-05
1.05745E-05
1.19173E-05
1.32601E-05
1.15816E-05
8.72816E-06
9.23171E-06
9.73526E-06
8.56031E-06
9.56741E-06
1.2253E-05
1.39315E-05
1.15816E-05
8.72816E-06
8.56031E-06
1.05745E-05
1.19173E-05
1.15816E-05
9.73526E-06
9.23171E-06
1.12459E-05
1.12459E-05
8.22461E-06
6.54612E-06
7.88891E-06
9.90311E-06
9.06386E-06
6.88182E-06
7.55322E-06
1.04067E-05
1.20851E-05
9.23171E-06
4.53193E-06
2.51774E-06
3.86053E-06
6.54612E-06
9.39956E-06
1.09102E-05
1.02388E-05
7.88891E-06
8.56031E-06
1.24208E-05
1.39315E-05
1.32601E-05
1.39315E-05
1.17494E-05
8.56031E-06
7.21752E-06
8.22461E-06
1.05745E-05
1.2253E-05
1.12459E-05
1.04067E-05
1.02388E-05
9.90311E-06
1.0071E-05
8.89601E-06
8.72816E-06
1.05745E-05
1.0071E-05
8.56031E-06
9.23171E-06
1.15816E-05
1.15816E-05
1.05745E-05
1.12459E-05
1.29244E-05
1.35958E-05
1.4435E-05
1.29244E-05
1.02388E-05
1.02388E-05
1.12459E-05
1.05745E-05
1.09102E-05
1.19173E-05
1.32601E-05
1.30922E-05
1.19173E-05
1.05745E-05
8.56031E-06
8.22461E-06
8.56031E-06
8.39246E-06
9.23171E-06
1.12459E-05
1.35958E-05
1.4435E-05
1.29244E-05
1.05745E-05
1.05745E-05
1.12459E-05
1.29244E-05
1.30922E-05
1.29244E-05
1.29244E-05
1.32601E-05
1.24208E-05
1.12459E-05
7.55322E-06
2.85344E-06
5.20333E-06
1.24208E-05
1.59457E-05
1.66171E-05
1.39315E-05
1.15816E-05
1.30922E-05
1.49386E-05
1.4435E-05
1.42672E-05
1.27565E-05
1.05745E-05
1.05745E-05
1.27565E-05
1.25887E-05
1.2253E-05
1.14137E-05
1.05745E-05
1.19173E-05
1.15816E-05
9.56741E-06
8.22461E-06
9.06386E-06
1.19173E-05
1.27565E-05
1.04067E-05
9.90311E-06
1.05745E-05
1.05745E-05
1.05745E-05
1.14137E-05
1.19173E-05
1.30922E-05
1.19173E-05
9.39956E-06
8.89601E-06
8.72816E-06
9.23171E-06
1.19173E-05
1.25887E-05
1.37636E-05
1.4435E-05
1.29244E-05
1.29244E-05
1.561E-05
1.76242E-05
1.66171E-05
1.46029E-05
1.25887E-05
1.15816E-05
1.0071E-05
9.90311E-06
1.04067E-05
1.05745E-05
1.12459E-05
1.29244E-05
1.12459E-05
7.88891E-06
9.73526E-06
1.32601E-05
1.39315E-05
1.05745E-05
7.88891E-06
7.55322E-06
8.56031E-06
9.56741E-06
1.05745E-05
9.39956E-06
6.54612E-06
6.37827E-06
9.06386E-06
1.14137E-05
1.12459E-05
1.05745E-05
1.05745E-05
1.19173E-05
1.14137E-05
9.23171E-06
9.56741E-06
1.14137E-05
1.25887E-05
1.29244E-05
1.15816E-05
9.56741E-06
9.06386E-06
1.0071E-05
1.05745E-05
1.09102E-05
1.04067E-05
9.56741E-06
9.39956E-06
1.02388E-05
1.17494E-05
1.15816E-05
1.05745E-05
1.29244E-05
1.59457E-05
1.66171E-05
1.39315E-05
1.25887E-05
1.32601E-05
1.29244E-05
1.02388E-05
8.89601E-06
9.56741E-06
1.1078E-05
9.90311E-06
7.88891E-06
6.54612E-06
7.21752E-06
8.89601E-06
1.02388E-05
1.2253E-05
1.2253E-05
1.07424E-05
9.90311E-06
9.23171E-06
8.56031E-06
8.39246E-06
9.90311E-06
1.15816E-05
1.2253E-05
1.24208E-05
1.17494E-05
1.2253E-05
1.37636E-05
1.29244E-05
1.15816E-05
1.09102E-05
1.05745E-05
9.56741E-06
7.88891E-06
7.55322E-06
7.21752E-06
7.72107E-06
1.14137E-05
1.46029E-05
1.32601E-05
1.04067E-05
9.23171E-06
1.05745E-05
1.05745E-05
8.89601E-06
6.88182E-06
7.21752E-06
8.22461E-06
5.70687E-06
5.87472E-06
9.90311E-06
1.2253E-05
1.24208E-05
1.39315E-05
1.64492E-05
1.59457E-05
1.27565E-05
1.05745E-05
1.32601E-05
1.64492E-05
1.76242E-05
1.67849E-05
1.46029E-05
1.39315E-05
1.51064E-05
1.46029E-05
1.27565E-05
1.12459E-05
9.23171E-06
9.23171E-06
1.05745E-05
1.15816E-05
1.05745E-05
1.19173E-05
1.15816E-05
9.73526E-06
8.22461E-06
6.54612E-06
6.88182E-06
9.06386E-06
1.05745E-05
1.2253E-05
1.02388E-05
9.23171E-06
1.25887E-05
1.49386E-05
1.42672E-05
1.25887E-05
1.15816E-05
1.29244E-05
1.49386E-05
1.49386E-05
1.32601E-05
1.27565E-05
1.2253E-05
1.17494E-05
1.19173E-05
1.25887E-05
1.34279E-05
1.4435E-05
1.47707E-05
1.57778E-05
1.72885E-05
1.66171E-05
1.52743E-05
1.52743E-05
1.39315E-05
1.09102E-05
9.90311E-06
1.05745E-05
1.1078E-05
9.90311E-06
8.89601E-06
9.73526E-06
9.73526E-06
1.02388E-05
1.2253E-05
1.19173E-05
9.23171E-06
5.20333E-06
2.85344E-06
4.86763E-06
7.55322E-06
8.56031E-06
7.88891E-06
6.71397E-06
6.54612E-06
8.56031E-06
1.29244E-05
1.59457E-05
1.59457E-05
1.52743E-05
1.49386E-05
1.24208E-05
7.04967E-06
4.53193E-06
7.21752E-06
1.05745E-05
1.05745E-05
1.02388E-05
1.02388E-05
9.90311E-06
8.22461E-06
7.88891E-06
1.04067E-05
1.49386E-05
1.49386E-05
1.17494E-05
1.25887E-05
1.37636E-05
1.35958E-05
1.19173E-05
9.56741E-06
1.04067E-05
1.32601E-05
1.2253E-05
9.23171E-06
6.21042E-06
5.87472E-06
1.02388E-05
1.27565E-05
1.1078E-05
9.90311E-06
1.14137E-05
1.39315E-05
1.32601E-05
9.39956E-06
8.56031E-06
9.90311E-06
1.05745E-05
1.17494E-05
1.32601E-05
1.04067E-05
6.88182E-06
8.39246E-06
1.15816E-05
1.2253E-05
1.24208E-05
1.2253E-05
1.19173E-05
1.42672E-05
1.59457E-05
1.49386E-05
1.25887E-05
1.12459E-05
1.2253E-05
1.05745E-05
9.23171E-06
1.19173E-05
1.29244E-05
1.19173E-05
1.15816E-05
1.15816E-05
1.15816E-05
1.2253E-05
1.2253E-05
1.24208E-05
1.04067E-05
8.89601E-06
9.90311E-06
1.29244E-05
1.42672E-05
1.19173E-05
1.05745E-05
1.04067E-05
1.19173E-05
1.42672E-05
1.561E-05
1.49386E-05
1.37636E-05
1.2253E-05
1.12459E-05
1.04067E-05
1.1078E-05
1.35958E-05
1.32601E-05
1.02388E-05
7.55322E-06
6.21042E-06
7.55322E-06
1.05745E-05
1.17494E-05
9.90311E-06
9.23171E-06
8.56031E-06
8.56031E-06
9.90311E-06
1.05745E-05
1.05745E-05
1.12459E-05
1.05745E-05
1.19173E-05
1.40993E-05
1.42672E-05
1.30922E-05
1.20851E-05
1.04067E-05
9.56741E-06
8.56031E-06
7.72107E-06
9.73526E-06
1.2253E-05
1.32601E-05
1.39315E-05
1.29244E-05
1.32601E-05
1.46029E-05
1.32601E-05
1.46029E-05
1.561E-05
1.42672E-05
1.32601E-05
1.39315E-05
1.15816E-05
9.23171E-06
9.23171E-06
9.39956E-06
1.17494E-05
1.49386E-05
1.59457E-05
1.57778E-05
1.561E-05
1.57778E-05
1.69528E-05
1.57778E-05
1.12459E-05
8.72816E-06
1.05745E-05
1.2253E-05
1.05745E-05
8.39246E-06
7.88891E-06
9.23171E-06
1.05745E-05
1.15816E-05
1.25887E-05
1.2253E-05
9.56741E-06
9.56741E-06
1.12459E-05
1.12459E-05
9.56741E-06
7.38537E-06
7.04967E-06
7.88891E-06
9.56741E-06
1.05745E-05
1.2253E-05
1.19173E-05
1.05745E-05
9.23171E-06
7.21752E-06
6.54612E-06
8.72816E-06
9.73526E-06
9.23171E-06
7.55322E-06
4.86763E-06
4.69978E-06
6.54612E-06
7.88891E-06
8.39246E-06
9.06386E-06
9.23171E-06
1.05745E-05
1.25887E-05
1.32601E-05
1.15816E-05
1.0071E-05
9.23171E-06
1.05745E-05
1.17494E-05
1.05745E-05
9.90311E-06
1.05745E-05
1.25887E-05
1.20851E-05
9.56741E-06
8.89601E-06
1.15816E-05
1.47707E-05
1.49386E-05
1.17494E-05
9.06386E-06
1.04067E-05
1.24208E-05
1.32601E-05
1.14137E-05
9.23171E-06
1.19173E-05
1.561E-05
1.59457E-05
1.59457E-05
1.57778E-05
1.25887E-05
1.04067E-05
1.19173E-05
1.35958E-05
1.46029E-05
1.32601E-05
1.32601E-05
1.30922E-05
1.2253E-05
1.05745E-05
1.12459E-05
1.35958E-05
1.32601E-05
1.19173E-05
1.05745E-05
1.0071E-05
1.09102E-05
1.17494E-05
1.09102E-05
1.17494E-05
1.2253E-05
1.12459E-05
9.06386E-06
8.22461E-06
8.72816E-06
1.04067E-05
1.05745E-05
1.05745E-05
1.2253E-05
1.39315E-05
1.27565E-05
1.14137E-05
1.05745E-05
1.0071E-05
8.56031E-06
6.54612E-06
8.22461E-06
1.12459E-05
1.17494E-05
1.15816E-05
1.19173E-05
1.25887E-05
1.37636E-05
1.14137E-05
8.56031E-06
7.55322E-06
5.20333E-06
5.87472E-06
8.56031E-06
1.05745E-05
9.23171E-06
5.87472E-06
2.85344E-06
4.86763E-06
9.56741E-06
1.35958E-05
1.39315E-05
1.27565E-05
1.19173E-05
1.25887E-05
1.42672E-05
1.42672E-05
1.32601E-05
1.05745E-05
7.88891E-06
7.88891E-06
9.73526E-06
1.12459E-05
1.29244E-05
1.4435E-05
1.54421E-05
1.46029E-05
1.1078E-05
9.06386E-06
1.12459E-05
1.39315E-05
1.46029E-05
1.30922E-05
9.73526E-06
1.04067E-05
1.27565E-05
1.27565E-05
1.05745E-05
1.09102E-05
1.2253E-05
1.14137E-05
8.22461E-06
5.87472E-06
7.55322E-06
9.73526E-06
1.02388E-05
1.12459E-05
1.19173E-05
1.29244E-05
1.25887E-05
1.12459E-05
9.73526E-06
9.23171E-06
7.72107E-06
7.04967E-06
1.05745E-05
1.47707E-05
1.561E-05
1.66171E-05
1.49386E-05
1.15816E-05
1.12459E-05
1.14137E-05
1.05745E-05
1.05745E-05
1.12459E-05
1.32601E-05
1.25887E-05
1.1078E-05
1.14137E-05
1.25887E-05
1.29244E-05
1.42672E-05
1.49386E-05
1.561E-05
1.62814E-05
1.71206E-05
1.67849E-05
1.34279E-05
9.23171E-06
9.39956E-06
1.40993E-05
1.52743E-05
1.25887E-05
1.05745E-05
6.54612E-06
3.86053E-06
5.20333E-06
8.22461E-06
9.23171E-06
1.02388E-05
1.15816E-05
1.20851E-05
1.05745E-05
8.56031E-06
8.72816E-06
1.05745E-05
1.2253E-05
1.29244E-05
1.12459E-05
9.73526E-06
1.04067E-05
1.0071E-05
1.02388E-05
1.32601E-05
1.42672E-05
1.32601E-05
1.46029E-05
1.52743E-05
1.32601E-05
1.14137E-05
9.90311E-06
1.05745E-05
1.25887E-05
1.25887E-05
1.25887E-05
1.49386E-05
1.40993E-05
1.04067E-05
8.22461E-06
7.88891E-06
9.90311E-06
1.2253E-05
1.25887E-05
1.19173E-05
1.05745E-05
9.23171E-06
1.02388E-05
1.20851E-05
1.24208E-05
1.19173E-05
1.05745E-05
1.14137E-05
1.27565E-05
1.35958E-05
1.49386E-05
1.66171E-05
1.59457E-05
1.46029E-05
1.32601E-05
1.25887E-05
1.19173E-05
1.19173E-05
1.37636E-05
1.49386E-05
1.09102E-05
5.20333E-06
4.19623E-06
6.37827E-06
7.21752E-06
8.56031E-06
9.23171E-06
9.90311E-06
1.05745E-05
1.02388E-05
1.14137E-05
1.29244E-05
1.19173E-05
1.04067E-05
9.23171E-06
1.0071E-05
1.19173E-05
1.24208E-05
1.05745E-05
9.23171E-06
1.09102E-05
1.19173E-05
1.27565E-05
1.32601E-05
1.19173E-05
8.56031E-06
5.20333E-06
4.86763E-06
6.21042E-06
7.04967E-06
7.55322E-06
8.39246E-06
8.56031E-06
7.88891E-06
1.04067E-05
1.29244E-05
1.4435E-05
1.49386E-05
1.37636E-05
1.19173E-05
1.19173E-05
1.32601E-05
1.32601E-05
1.15816E-05
1.05745E-05
1.1078E-05
1.19173E-05
1.19173E-05
1.09102E-05
1.05745E-05
1.04067E-05
1.05745E-05
1.12459E-05
1.17494E-05
1.35958E-05
1.35958E-05
1.19173E-05
1.2253E-05
1.32601E-05
1.42672E-05
1.59457E-05
1.71206E-05
1.66171E-05
1.49386E-05
1.19173E-05
1.0071E-05
9.90311E-06
9.90311E-06
8.56031E-06
8.89601E-06
9.56741E-06
9.39956E-06
9.06386E-06
9.39956E-06
1.0071E-05
1.19173E-05
1.29244E-05
1.30922E-05
1.15816E-05
9.39956E-06
8.22461E-06
9.23171E-06
1.09102E-05
1.09102E-05
1.05745E-05
1.12459E-05
1.19173E-05
1.35958E-05
1.57778E-05
1.69528E-05
1.30922E-05
8.56031E-06
7.38537E-06
9.56741E-06
1.19173E-05
1.05745E-05
7.88891E-06
8.39246E-06
1.02388E-05
1.05745E-05
1.05745E-05
1.09102E-05
1.2253E-05
1.32601E-05
1.12459E-05
1.0071E-05
1.17494E-05
1.46029E-05
1.46029E-05
1.42672E-05
1.4435E-05
1.29244E-05
1.25887E-05
1.24208E-05
1.19173E-05
1.12459E-05
1.02388E-05
1.05745E-05
1.15816E-05
1.12459E-05
1.02388E-05
9.73526E-06
1.02388E-05
1.05745E-05
9.90311E-06
9.90311E-06
1.17494E-05
1.17494E-05
8.72816E-06
7.72107E-06
8.39246E-06
8.56031E-06
7.88891E-06
9.73526E-06
1.09102E-05
1.05745E-05
9.56741E-06
8.56031E-06
7.88891E-06
8.56031E-06
9.90311E-06
1.19173E-05
1.15816E-05
9.23171E-06
8.56031E-06
9.56741E-06
1.05745E-05
1.09102E-05
1.1078E-05
1.05745E-05
1.02388E-05
1.05745E-05
9.06386E-06
7.88891E-06
8.56031E-06
1.05745E-05
1.19173E-05
1.05745E-05
1.04067E-05
1.05745E-05
1.12459E-05
1.12459E-05
7.55322E-06
3.86053E-06
5.20333E-06
7.38537E-06
9.73526E-06
1.04067E-05
8.56031E-06
7.88891E-06
9.90311E-06
1.12459E-05
1.25887E-05
1.35958E-05
1.12459E-05
9.23171E-06
1.05745E-05
1.17494E-05
9.90311E-06
9.06386E-06
1.09102E-05
1.32601E-05
1.46029E-05
1.46029E-05
1.72885E-05
1.8967E-05
1.86313E-05
1.76242E-05
1.71206E-05
1.64492E-05
1.84634E-05
1.99741E-05
2.03098E-05
1.82956E-05
1.52743E-05
1.46029E-05
1.62814E-05
1.51064E-05
1.15816E-05
1.15816E-05
1.29244E-05
1.37636E-05
1.40993E-05
1.35958E-05
1.19173E-05
1.1078E-05
1.05745E-05
1.05745E-05
9.90311E-06
9.06386E-06
9.23171E-06
1.05745E-05
1.17494E-05
1.05745E-05
7.72107E-06
6.21042E-06
8.39246E-06
1.05745E-05
1.15816E-05
1.19173E-05
1.05745E-05
9.90311E-06
1.05745E-05
1.05745E-05
1.05745E-05
9.23171E-06
6.21042E-06
5.87472E-06
9.90311E-06
1.02388E-05
8.56031E-06
9.23171E-06
9.90311E-06
1.12459E-05
1.02388E-05
1.05745E-05
1.19173E-05
1.04067E-05
8.56031E-06
9.39956E-06
9.23171E-06
8.56031E-06
8.22461E-06
8.89601E-06
1.1078E-05
1.12459E-05
9.73526E-06
8.39246E-06
6.04257E-06
5.87472E-06
9.06386E-06
1.12459E-05
1.02388E-05
1.02388E-05
1.29244E-05
1.40993E-05
1.35958E-05
1.25887E-05
1.19173E-05
1.24208E-05
1.1078E-05
9.90311E-06
1.05745E-05
1.05745E-05
1.05745E-05
1.05745E-05
9.39956E-06
8.72816E-06
8.89601E-06
1.04067E-05
1.05745E-05
8.56031E-06
7.21752E-06
7.72107E-06
9.90311E-06
1.2253E-05
1.12459E-05
9.23171E-06
8.39246E-06
1.1078E-05
1.15816E-05
9.90311E-06
1.02388E-05
1.15816E-05
1.29244E-05
1.66171E-05
1.561E-05
9.90311E-06
8.56031E-06
9.56741E-06
1.05745E-05
1.32601E-05
1.39315E-05
1.19173E-05
1.12459E-05
1.32601E-05
1.561E-05
1.46029E-05
1.46029E-05
1.561E-05
1.59457E-05
1.561E-05
1.561E-05
1.51064E-05
1.37636E-05
1.32601E-05
1.42672E-05
1.52743E-05
1.52743E-05
1.32601E-05
8.39246E-06
5.70687E-06
5.70687E-06
6.54612E-06
9.23171E-06
1.12459E-05
1.09102E-05
1.05745E-05
9.90311E-06
7.21752E-06
6.37827E-06
8.89601E-06
1.19173E-05
1.19173E-05
9.73526E-06
1.02388E-05
1.30922E-05
1.59457E-05
1.59457E-05
1.51064E-05
1.35958E-05
1.32601E-05
1.2253E-05
9.90311E-06
8.89601E-06
9.90311E-06
1.2253E-05
1.05745E-05
7.21752E-06
7.38537E-06
1.04067E-05
1.46029E-05
1.66171E-05
1.49386E-05
1.05745E-05
8.22461E-06
1.05745E-05
1.30922E-05
1.02388E-05
6.54612E-06
5.87472E-06
5.87472E-06
7.88891E-06
9.90311E-06
9.73526E-06
1.05745E-05
1.15816E-05
1.25887E-05
1.42672E-05
1.52743E-05
1.52743E-05
1.52743E-05
1.52743E-05
1.59457E-05
1.46029E-05
1.2253E-05
1.4435E-05
1.57778E-05
1.51064E-05
1.46029E-05
1.12459E-05
9.23171E-06
1.09102E-05
1.14137E-05
9.56741E-06
9.56741E-06
9.56741E-06
9.23171E-06
1.05745E-05
1.05745E-05
9.90311E-06
1.02388E-05
1.05745E-05
1.19173E-05
1.35958E-05
1.39315E-05
1.40993E-05
1.52743E-05
1.64492E-05
1.4435E-05
9.06386E-06
7.21752E-06
9.39956E-06
9.23171E-06
9.90311E-06
1.12459E-05
9.23171E-06
6.88182E-06
6.71397E-06
7.55322E-06
8.22461E-06
5.20333E-06
3.02129E-06
3.18914E-06
6.21042E-06
9.23171E-06
1.12459E-05
1.14137E-05
9.90311E-06
8.89601E-06
1.12459E-05
1.54421E-05
1.54421E-05
1.2253E-05
9.56741E-06
1.09102E-05
1.30922E-05
1.34279E-05
1.42672E-05
1.52743E-05
1.52743E-05
1.4435E-05
1.42672E-05
1.49386E-05
1.54421E-05
1.59457E-05
1.64492E-05
1.37636E-05
9.06386E-06
8.05676E-06
1.12459E-05
1.46029E-05
1.49386E-05
1.24208E-05
7.88891E-06
7.21752E-06
9.23171E-06
1.15816E-05
1.02388E-05
7.88891E-06
7.04967E-06
8.39246E-06
8.56031E-06
6.21042E-06
5.20333E-06
8.22461E-06
1.30922E-05
1.32601E-05
9.23171E-06
7.04967E-06
1.04067E-05
1.54421E-05
1.57778E-05
1.35958E-05
1.05745E-05
1.09102E-05
1.42672E-05
1.32601E-05
1.32601E-05
1.34279E-05
1.14137E-05
9.90311E-06
1.32601E-05
1.46029E-05
1.42672E-05
1.37636E-05
1.2253E-05
1.32601E-05
1.32601E-05
9.73526E-06
1.04067E-05
1.46029E-05
1.72885E-05
1.72885E-05
1.59457E-05
1.47707E-05
1.52743E-05
1.59457E-05
1.49386E-05
1.35958E-05
1.15816E-05
1.02388E-05
9.23171E-06
8.56031E-06
1.0071E-05
1.19173E-05
9.90311E-06
7.38537E-06
8.05676E-06
8.89601E-06
9.23171E-06
9.39956E-06
8.22461E-06
8.72816E-06
9.23171E-06
7.55322E-06
7.04967E-06
5.20333E-06
4.69978E-06
6.37827E-06
5.53902E-06
4.36408E-06
6.54612E-06
1.05745E-05
1.35958E-05
1.29244E-05
1.05745E-05
8.89601E-06
8.89601E-06
9.90311E-06
9.90311E-06
1.09102E-05
1.09102E-05
9.90311E-06
1.05745E-05
1.05745E-05
1.02388E-05
1.09102E-05
9.56741E-06
8.56031E-06
8.39246E-06
8.39246E-06
1.05745E-05
1.25887E-05
1.2253E-05
1.19173E-05
1.39315E-05
1.561E-05
1.66171E-05
1.72885E-05
1.71206E-05
1.59457E-05
1.37636E-05
1.19173E-05
1.19173E-05
1.02388E-05
8.56031E-06
7.88891E-06
7.21752E-06
7.72107E-06
8.22461E-06
8.39246E-06
8.56031E-06
9.06386E-06
8.56031E-06
1.05745E-05
1.19173E-05
1.15816E-05
1.32601E-05
1.39315E-05
1.24208E-05
1.2253E-05
1.12459E-05
1.02388E-05
1.1078E-05
1.12459E-05
1.15816E-05
1.14137E-05
1.0071E-05
1.1078E-05
1.35958E-05
1.32601E-05
1.20851E-05
1.32601E-05
1.2253E-05
9.39956E-06
1.0071E-05
1.19173E-05
1.32601E-05
1.32601E-05
1.15816E-05
1.05745E-05
1.09102E-05
1.24208E-05
1.52743E-05
1.64492E-05
1.49386E-05
1.2253E-05
1.02388E-05
1.05745E-05
1.17494E-05
1.25887E-05
1.2253E-05
1.25887E-05
1.20851E-05
1.25887E-05
1.59457E-05
1.79599E-05
1.66171E-05
1.46029E-05
1.12459E-05
8.89601E-06
8.89601E-06
7.55322E-06
6.88182E-06
1.05745E-05
1.29244E-05
1.14137E-05
7.88891E-06
7.55322E-06
1.15816E-05
1.42672E-05
1.39315E-05
1.30922E-05
1.19173E-05
1.14137E-05
1.24208E-05
1.2253E-05
1.15816E-05
1.20851E-05
1.29244E-05
1.27565E-05
1.24208E-05
1.2253E-05
1.29244E-05
1.42672E-05
1.35958E-05
1.25887E-05
1.27565E-05
1.2253E-05
9.23171E-06
6.54612E-06
6.54612E-06
7.72107E-06
6.54612E-06
5.87472E-06
6.54612E-06
5.20333E-06
4.86763E-06
6.04257E-06
5.87472E-06
7.04967E-06
7.88891E-06
7.04967E-06
8.22461E-06
9.56741E-06
8.89601E-06
9.06386E-06
1.05745E-05
1.37636E-05
1.46029E-05
1.24208E-05
1.05745E-05
1.02388E-05
1.17494E-05
1.17494E-05
1.05745E-05
1.1078E-05
1.2253E-05
1.39315E-05
1.32601E-05
1.19173E-05
1.05745E-05
1.15816E-05
1.39315E-05
1.52743E-05
1.32601E-05
1.27565E-05
1.2253E-05
1.2253E-05
1.29244E-05
1.32601E-05
1.15816E-05
1.09102E-05
1.25887E-05
1.39315E-05
1.29244E-05
1.05745E-05
9.23171E-06
1.09102E-05
1.37636E-05
1.24208E-05
1.05745E-05
9.56741E-06
9.56741E-06
1.09102E-05
1.05745E-05
9.23171E-06
1.02388E-05
1.2253E-05
1.19173E-05
9.56741E-06
7.88891E-06
9.73526E-06
1.25887E-05
1.39315E-05
1.29244E-05
1.05745E-05
8.22461E-06
6.21042E-06
7.21752E-06
8.89601E-06
9.23171E-06
9.90311E-06
9.23171E-06
7.88891E-06
9.06386E-06
1.2253E-05
1.32601E-05
1.52743E-05
1.59457E-05
1.66171E-05
1.51064E-05
1.30922E-05
1.52743E-05
1.79599E-05
1.69528E-05
1.35958E-05
1.05745E-05
9.90311E-06
1.25887E-05
1.42672E-05
1.32601E-05
1.4435E-05
1.39315E-05
1.30922E-05
1.17494E-05
1.14137E-05
1.25887E-05
1.25887E-05
1.19173E-05
1.29244E-05
1.47707E-05
1.52743E-05
1.27565E-05
1.09102E-05
1.05745E-05
1.17494E-05
1.19173E-05
1.12459E-05
1.29244E-05
1.46029E-05
1.46029E-05
1.37636E-05
1.02388E-05
8.56031E-06
1.29244E-05
1.64492E-05
1.35958E-05
9.56741E-06
7.21752E-06
8.56031E-06
1.12459E-05
1.29244E-05
1.2253E-05
1.05745E-05
9.56741E-06
1.04067E-05
1.2253E-05
1.37636E-05
1.37636E-05
1.29244E-05
1.14137E-05
9.56741E-06
7.88891E-06
7.88891E-06
1.05745E-05
1.05745E-05
7.55322E-06
5.20333E-06
5.53902E-06
7.21752E-06
7.55322E-06
8.22461E-06
9.23171E-06
9.56741E-06
8.89601E-06
8.89601E-06
9.06386E-06
9.23171E-06
9.56741E-06
8.22461E-06
6.88182E-06
7.21752E-06
8.39246E-06
8.22461E-06
8.39246E-06
6.54612E-06
4.86763E-06
6.88182E-06
7.21752E-06
4.53193E-06
3.86053E-06
7.21752E-06
1.02388E-05
9.90311E-06
7.21752E-06
6.21042E-06
9.06386E-06
1.25887E-05
1.30922E-05
1.05745E-05
7.55322E-06
7.04967E-06
9.73526E-06
1.32601E-05
1.30922E-05
1.25887E-05
1.15816E-05
1.12459E-05
1.42672E-05
1.71206E-05
1.72885E-05
1.561E-05
1.25887E-05
1.04067E-05
8.89601E-06
9.73526E-06
1.2253E-05
1.25887E-05
1.17494E-05
9.90311E-06
9.23171E-06
1.15816E-05
1.46029E-05
1.59457E-05
1.62814E-05
1.42672E-05
1.05745E-05
1.05745E-05
1.57778E-05
1.98062E-05
1.96384E-05
1.71206E-05
1.42672E-05
1.29244E-05
1.40993E-05
1.35958E-05
1.2253E-05
1.15816E-05
1.17494E-05
1.40993E-05
1.59457E-05
1.62814E-05
1.82956E-05
1.8967E-05
1.72885E-05
1.47707E-05
1.1078E-05
6.54612E-06
5.70687E-06
6.04257E-06
3.52483E-06
-8.39246E-07
-7.21752E-06
-1.1078E-05
-1.2253E-05
-9.90311E-06
-4.69978E-06
-1.17494E-06
0
3.52483E-06
8.72816E-06
1.29244E-05
1.46029E-05
1.72885E-05
1.99741E-05
2.13169E-05
2.26596E-05
2.36667E-05
2.6688E-05
2.87022E-05
2.53452E-05
2.26596E-05
2.3331E-05
2.3331E-05
2.26596E-05
2.23239E-05
2.31632E-05
2.40024E-05
2.13169E-05
1.86313E-05
1.93027E-05
2.09812E-05
1.94705E-05
1.64492E-05
1.37636E-05
1.15816E-05
1.1078E-05
1.19173E-05
1.25887E-05
1.29244E-05
1.12459E-05
9.90311E-06
9.73526E-06
9.73526E-06
1.04067E-05
1.19173E-05
1.29244E-05
1.29244E-05
1.25887E-05
1.32601E-05
1.51064E-05
1.561E-05
1.37636E-05
1.05745E-05
7.21752E-06
6.54612E-06
5.20333E-06
4.69978E-06
5.53902E-06
4.53193E-06
3.35698E-07
-1.51064E-06
5.03548E-07
5.03548E-07
-4.53193E-06
-7.55322E-06
-9.56741E-06
-1.09102E-05
-1.02388E-05
-9.06386E-06
-9.06386E-06
-9.23171E-06
-7.88891E-06
-5.87472E-06
-1.17494E-06
6.54612E-06
1.32601E-05
1.69528E-05
1.76242E-05
1.8967E-05
2.19882E-05
2.40024E-05
2.3331E-05
2.3331E-05
2.46738E-05
2.51774E-05
2.53452E-05
2.60166E-05
2.60166E-05
2.56809E-05
2.40024E-05
2.13169E-05
2.04776E-05
2.09812E-05
1.7792E-05
1.59457E-05
2.13169E-05
2.75273E-05
2.85344E-05
2.60166E-05
2.01419E-05
1.25887E-05
9.56741E-06
8.72816E-06
6.21042E-06
3.35698E-06
-5.03548E-07
-2.51774E-06
-1.67849E-07
1.17494E-06
3.69268E-06
5.87472E-06
3.18914E-06
8.39246E-07
1.17494E-06
8.39246E-07
1.17494E-06
2.51774E-06
2.18204E-06
5.03548E-07
-8.39246E-07
-1.51064E-06
-1.67849E-07
1.17494E-06
3.18914E-06
6.54612E-06
1.05745E-05
1.42672E-05
1.62814E-05
1.72885E-05
1.82956E-05
1.79599E-05
1.59457E-05
1.57778E-05
1.7792E-05
1.8967E-05
1.86313E-05
2.16526E-05
2.26596E-05
2.1149E-05
2.1149E-05
2.23239E-05
2.24918E-05
2.1149E-05
1.93027E-05
1.81277E-05
1.72885E-05
1.66171E-05
1.46029E-05
1.05745E-05
6.54612E-06
4.02838E-06
-1.17494E-06
-9.90311E-06
-1.46029E-05
-1.19173E-05
-7.55322E-06
-5.53902E-06
-5.03548E-06
-1.67849E-06
2.51774E-06
4.69978E-06
3.86053E-06
3.02129E-06
4.02838E-06
8.89601E-06
1.51064E-05
1.64492E-05
1.39315E-05
1.39315E-05
1.64492E-05
1.82956E-05
1.79599E-05
1.69528E-05
1.59457E-05
1.25887E-05
4.19623E-06
-9.56741E-06
-2.16526E-05
-2.70237E-05
-2.13169E-05
-1.35958E-05
-4.53193E-06
6.21042E-06
1.62814E-05
2.34989E-05
2.83665E-05
3.28985E-05
3.87732E-05
4.24659E-05
4.21302E-05
4.11231E-05
3.99481E-05
3.74304E-05
3.64233E-05
3.64233E-05
3.18914E-05
2.43381E-05
1.62814E-05
8.56031E-06
4.53193E-06
3.35698E-06
8.39246E-07
-2.18204E-06
-4.19623E-06
-2.18204E-06
5.53902E-06
1.32601E-05
1.51064E-05
1.42672E-05
1.62814E-05
1.96384E-05
2.09812E-05
2.13169E-05
2.6688E-05
3.23949E-05
3.32342E-05
3.13878E-05
3.07164E-05
3.07164E-05
2.60166E-05
2.03098E-05
1.82956E-05
1.86313E-05
1.66171E-05
1.49386E-05
1.93027E-05
2.13169E-05
1.561E-05
1.05745E-05
6.54612E-06
1.84634E-06
1.84634E-06
3.86053E-06
4.86763E-06
4.86763E-06
6.37827E-06
9.73526E-06
1.32601E-05
1.46029E-05
1.76242E-05
2.19882E-05
2.58488E-05
3.07164E-05
3.3402E-05
3.10521E-05
2.87022E-05
2.70237E-05
2.40024E-05
2.06455E-05
1.40993E-05
5.03548E-06
-3.35698E-06
-7.88891E-06
-8.39246E-06
-9.06386E-06
-9.56741E-06
-5.20333E-06
3.18914E-06
1.04067E-05
1.29244E-05
1.19173E-05
5.53902E-06
-6.54612E-06
-1.8967E-05
-3.0045E-05
-3.94446E-05
-4.68299E-05
-5.43832E-05
-5.62295E-05
-5.06905E-05
-3.91089E-05
-2.43381E-05
-9.90311E-06
-1.84634E-06
-2.51774E-06
-5.87472E-06
-2.51774E-06
5.70687E-06
1.02388E-05
9.23171E-06
9.90311E-06
1.62814E-05
2.61845E-05
3.82696E-05
4.95155E-05
5.72366E-05
6.02579E-05
5.70687E-05
5.2369E-05
5.2369E-05
5.33761E-05
4.95155E-05
4.19623E-05
3.47448E-05
2.98772E-05
2.51774E-05
1.99741E-05
1.47707E-05
1.1078E-05
1.02388E-05
1.62814E-05
2.23239E-05
2.53452E-05
3.0045E-05
3.32342E-05
2.93736E-05
2.21561E-05
1.49386E-05
1.09102E-05
9.90311E-06
8.56031E-06
5.03548E-06
-3.52483E-06
-1.32601E-05
-1.52743E-05
-9.73526E-06
-5.53902E-06
-1.02388E-05
-1.91348E-05
-2.21561E-05
-1.76242E-05
-9.73526E-06
-6.54612E-06
-6.88182E-06
-1.02388E-05
-1.54421E-05
-1.8967E-05
-1.96384E-05
-1.47707E-05
-3.18914E-06
7.88891E-06
1.52743E-05
2.24918E-05
2.93736E-05
3.60876E-05
4.48157E-05
5.53903E-05
6.56291E-05
7.36858E-05
7.73785E-05
7.63714E-05
7.16716E-05
6.32792E-05
5.32082E-05
4.24659E-05
2.93736E-05
1.66171E-05
7.72107E-06
3.52483E-06
-1.67849E-07
-2.85344E-06
-3.69268E-06
-3.18914E-06
-3.18914E-06
-4.36408E-06
-5.53902E-06
-9.73526E-06
-1.4435E-05
-1.52743E-05
-1.62814E-05
-1.98062E-05
-1.96384E-05
-1.561E-05
-1.12459E-05
-6.54612E-06
-4.53193E-06
-3.86053E-06
-2.85344E-06
-1.51064E-06
-3.35698E-07
-6.71397E-07
-2.51774E-06
-4.19623E-06
-6.21042E-06
-7.55322E-06
-9.23171E-06
-1.12459E-05
-1.62814E-05
-1.99741E-05
-2.63523E-05
-3.17235E-05
-3.17235E-05
-3.0045E-05
-2.63523E-05
-1.82956E-05
-5.87472E-06
1.04067E-05
2.3331E-05
2.87022E-05
3.17235E-05
3.27306E-05
3.25628E-05
3.3402E-05
3.47448E-05
3.47448E-05
3.27306E-05
3.18914E-05
2.81987E-05
2.63523E-05
2.92058E-05
3.25628E-05
3.86053E-05
4.63264E-05
4.75013E-05
4.24659E-05
3.57519E-05
3.17235E-05
3.27306E-05
3.40734E-05
3.3402E-05
2.93736E-05
2.13169E-05
1.71206E-05
1.98062E-05
2.29953E-05
2.31632E-05
2.26596E-05
2.43381E-05
2.6688E-05
2.87022E-05
2.92058E-05
2.73594E-05
2.55131E-05
2.58488E-05
2.90379E-05
3.20592E-05
3.07164E-05
2.50095E-05
1.99741E-05
1.2253E-05
3.35698E-06
-5.53902E-06
-1.51064E-05
-2.29953E-05
-3.02129E-05
-3.37377E-05
-3.03807E-05
-2.61845E-05
-2.29953E-05
-1.62814E-05
-5.53902E-06
5.20333E-06
1.05745E-05
1.30922E-05
1.46029E-05
1.561E-05
1.561E-05
1.39315E-05
1.2253E-05
1.14137E-05
1.35958E-05
1.561E-05
1.39315E-05
9.56741E-06
7.55322E-06
7.21752E-06
9.06386E-06
9.39956E-06
8.22461E-06
9.23171E-06
1.1078E-05
9.90311E-06
8.89601E-06
7.21752E-06
4.19623E-06
6.21042E-06
9.90311E-06
1.25887E-05
1.49386E-05
1.69528E-05
2.09812E-05
2.50095E-05
2.70237E-05
2.61845E-05
1.99741E-05
1.05745E-05
2.01419E-06
-4.19623E-06
-6.88182E-06
-8.22461E-06
-1.02388E-05
-1.37636E-05
-1.59457E-05
-1.62814E-05
-1.40993E-05
-7.21752E-06
2.51774E-06
7.72107E-06
9.73526E-06
1.05745E-05
1.39315E-05
2.06455E-05
2.38346E-05
1.99741E-05
1.25887E-05
8.39246E-06
4.19623E-06
-4.19623E-06
-8.89601E-06
-6.54612E-06
-2.34989E-06
2.34989E-06
9.90311E-06
1.99741E-05
2.87022E-05
3.54162E-05
4.21302E-05
4.71656E-05
5.00191E-05
5.08583E-05
4.75013E-05
4.04517E-05
3.20592E-05
2.60166E-05
2.26596E-05
2.13169E-05
2.46738E-05
3.122E-05
3.5584E-05
3.60876E-05
3.60876E-05
3.40734E-05
2.53452E-05
1.19173E-05
-2.85344E-06
-1.29244E-05
-1.71206E-05
-1.96384E-05
-1.93027E-05
-1.46029E-05
-5.53902E-06
3.18914E-06
8.56031E-06
1.25887E-05
1.64492E-05
1.66171E-05
1.15816E-05
6.88182E-06
8.39246E-07
-3.18914E-06
-3.86053E-06
-4.02838E-06
-6.21042E-06
-7.21752E-06
-7.38537E-06
-9.06386E-06
-9.90311E-06
-7.88891E-06
-1.0071E-06
1.0071E-05
2.13169E-05
2.73594E-05
2.93736E-05
3.0045E-05
3.3402E-05
4.21302E-05
5.30404E-05
5.82437E-05
5.48867E-05
4.86763E-05
4.64942E-05
4.39765E-05
3.84375E-05
3.23949E-05
2.50095E-05
1.51064E-05
5.20333E-06
-3.86053E-06
-1.09102E-05
-1.46029E-05
-1.82956E-05
-2.38346E-05
-2.73594E-05
-2.71916E-05
-2.63523E-05
-2.46738E-05
-2.3331E-05
-2.31632E-05
-2.55131E-05
-2.75273E-05
-2.87022E-05
-2.46738E-05
-1.82956E-05
-1.29244E-05
-5.70687E-06
4.19623E-06
1.57778E-05
2.71916E-05
3.57519E-05
4.04517E-05
4.39765E-05
4.28016E-05
3.59197E-05
2.50095E-05
1.51064E-05
7.55322E-06
3.52483E-06
4.19623E-06
4.53193E-06
3.35698E-07
-2.34989E-06
-1.67849E-07
4.53193E-06
9.06386E-06
9.90311E-06
7.88891E-06
7.88891E-06
1.30922E-05
2.06455E-05
3.07164E-05
4.14588E-05
4.93477E-05
5.25368E-05
4.68299E-05
3.91089E-05
3.54162E-05
3.47448E-05
3.40734E-05
3.18914E-05
2.73594E-05
2.40024E-05
2.34989E-05
2.06455E-05
1.93027E-05
1.96384E-05
1.93027E-05
2.01419E-05
2.1149E-05
1.86313E-05
1.20851E-05
1.17494E-06
-1.04067E-05
-1.76242E-05
-1.62814E-05
-9.56741E-06
-1.51064E-06
6.37827E-06
1.30922E-05
2.28275E-05
2.88701E-05
2.7863E-05
2.60166E-05
2.58488E-05
2.4506E-05
2.06455E-05
1.46029E-05
1.12459E-05
8.56031E-06
3.86053E-06
1.67849E-07
-1.17494E-06
-2.01419E-06
-2.01419E-06
-1.17494E-06
-1.67849E-06
-3.86053E-06
-7.04967E-06
-9.56741E-06
-6.88182E-06
-3.52483E-06
0
1.51064E-06
2.85344E-06
6.04257E-06
1.1078E-05
1.2253E-05
1.2253E-05
1.49386E-05
1.79599E-05
1.8967E-05
1.72885E-05
9.73526E-06
-1.17494E-06
-7.88891E-06
-8.89601E-06
-8.22461E-06
-1.30922E-05
-2.19882E-05
-2.36667E-05
-1.76242E-05
-9.56741E-06
-2.85344E-06
4.19623E-06
8.56031E-06
1.09102E-05
1.32601E-05
1.54421E-05
1.59457E-05
1.7792E-05
2.16526E-05
2.87022E-05
3.27306E-05
3.20592E-05
3.40734E-05
3.44091E-05
3.17235E-05
3.07164E-05
2.98772E-05
2.80308E-05
2.53452E-05
2.23239E-05
1.79599E-05
1.40993E-05
8.22461E-06
2.51774E-06
2.18204E-06
4.86763E-06
7.55322E-06
1.15816E-05
1.35958E-05
1.19173E-05
1.05745E-05
1.25887E-05
1.46029E-05
1.39315E-05
1.2253E-05
1.25887E-05
1.12459E-05
7.88891E-06
7.72107E-06
9.73526E-06
1.2253E-05
1.59457E-05
1.96384E-05
2.3331E-05
2.6688E-05
2.80308E-05
2.53452E-05
2.1149E-05
1.91348E-05
1.82956E-05
1.59457E-05
1.05745E-05
4.69978E-06
2.18204E-06
5.03548E-06
1.05745E-05
1.561E-05
1.79599E-05
1.69528E-05
1.02388E-05
-1.84634E-06
-1.09102E-05
-1.32601E-05
-1.25887E-05
-1.09102E-05
-8.22461E-06
-4.53193E-06
-3.35698E-07
3.86053E-06
1.1078E-05
1.7792E-05
2.08133E-05
2.13169E-05
2.06455E-05
1.81277E-05
1.51064E-05
1.42672E-05
1.52743E-05
1.66171E-05
1.59457E-05
5.20333E-06
-9.73526E-06
-1.8967E-05
-2.09812E-05
-1.82956E-05
-1.09102E-05
-1.67849E-07
1.19173E-05
2.13169E-05
2.46738E-05
2.46738E-05
2.26596E-05
2.1149E-05
2.13169E-05
2.19882E-05
2.46738E-05
3.23949E-05
3.74304E-05
3.37377E-05
2.53452E-05
1.39315E-05
4.19623E-06
-1.17494E-06
-4.53193E-06
-4.86763E-06
-3.35698E-07
3.35698E-06
6.04257E-06
8.72816E-06
1.1078E-05
1.4435E-05
1.66171E-05
1.66171E-05
1.52743E-05
1.05745E-05
6.21042E-06
9.90311E-06
2.18204E-05
3.47448E-05
4.48157E-05
5.20333E-05
5.28725E-05
4.81727E-05
4.11231E-05
3.45769E-05
3.10521E-05
2.58488E-05
1.93027E-05
1.4435E-05
7.88891E-06
1.17494E-06
-2.51774E-06
-3.69268E-06
-5.53902E-06
-5.70687E-06
-4.19623E-06
-1.51064E-06
-1.67849E-06
-4.53193E-06
-6.88182E-06
-1.15816E-05
-1.69528E-05
-2.29953E-05
-2.97093E-05
-3.27306E-05
-3.13878E-05
-2.73594E-05
-1.8967E-05
-5.87472E-06
6.04257E-06
1.32601E-05
1.54421E-05
1.69528E-05
2.16526E-05
2.73594E-05
2.73594E-05
2.26596E-05
2.03098E-05
2.1149E-05
2.50095E-05
3.0045E-05
3.52483E-05
3.60876E-05
3.30663E-05
3.0045E-05
2.46738E-05
1.69528E-05
1.25887E-05
1.35958E-05
1.46029E-05
1.46029E-05
1.46029E-05
1.52743E-05
1.59457E-05
1.7792E-05
2.23239E-05
2.63523E-05
2.70237E-05
2.50095E-05
2.40024E-05
2.60166E-05
2.6688E-05
2.46738E-05
2.34989E-05
2.09812E-05
1.72885E-05
1.59457E-05
1.69528E-05
1.72885E-05
1.47707E-05
9.23171E-06
5.70687E-06
5.03548E-07
-8.22461E-06
-1.25887E-05
-8.22461E-06
-2.85344E-06
-6.71397E-07
-2.51774E-06
-2.85344E-06
-1.51064E-06
-1.51064E-06
-2.85344E-06
-4.19623E-06
-6.37827E-06
-7.72107E-06
-6.21042E-06
-1.51064E-06
4.53193E-06
1.2253E-05
1.79599E-05
2.06455E-05
2.18204E-05
2.4506E-05
2.48417E-05
2.01419E-05
1.09102E-05
2.18204E-06
-3.52483E-06
-6.37827E-06
-8.89601E-06
-1.52743E-05
-1.99741E-05
-1.82956E-05
-1.49386E-05
-8.22461E-06
1.84634E-06
6.88182E-06
6.88182E-06
1.02388E-05
1.59457E-05
2.4506E-05
3.3402E-05
4.04517E-05
4.51514E-05
4.68299E-05
4.53193E-05
4.61585E-05
4.43122E-05
4.07874E-05
3.94446E-05
4.0116E-05
3.92767E-05
3.64233E-05
3.17235E-05
2.6688E-05
2.09812E-05
1.19173E-05
2.51774E-06
-4.19623E-06
-9.90311E-06
-1.35958E-05
-1.51064E-05
-1.66171E-05
-1.49386E-05
-8.72816E-06
-1.51064E-06
3.52483E-06
8.89601E-06
1.24208E-05
1.25887E-05
1.19173E-05
1.15816E-05
1.52743E-05
2.03098E-05
2.04776E-05
1.72885E-05
1.69528E-05
1.72885E-05
1.82956E-05
1.52743E-05
9.90311E-06
9.23171E-06
1.15816E-05
1.17494E-05
9.06386E-06
3.86053E-06
-1.17494E-06
-2.85344E-06
-2.18204E-06
-2.85344E-06
-5.70687E-06
-7.72107E-06
-7.21752E-06
-4.19623E-06
-1.17494E-06
-1.84634E-06
-2.51774E-06
-1.51064E-06
2.34989E-06
5.87472E-06
7.88891E-06
9.23171E-06
1.05745E-05
1.05745E-05
1.19173E-05
1.2253E-05
1.02388E-05
8.22461E-06
6.54612E-06
8.39246E-07
-1.51064E-06
4.02838E-06
1.20851E-05
1.99741E-05
2.73594E-05
3.18914E-05
3.27306E-05
3.27306E-05
3.40734E-05
3.60876E-05
3.25628E-05
2.85344E-05
2.71916E-05
2.51774E-05
2.40024E-05
2.60166E-05
2.90379E-05
3.07164E-05
3.07164E-05
2.93736E-05
2.56809E-05
1.79599E-05
9.06386E-06
5.03548E-07
-5.53902E-06
-8.56031E-06
-1.32601E-05
-2.04776E-05
-2.75273E-05
-2.70237E-05
-1.82956E-05
-7.21752E-06
8.39246E-07
4.86763E-06
6.88182E-06
7.55322E-06
5.87472E-06
1.67849E-06
-3.35698E-07
3.35698E-07
8.89601E-06
2.7863E-05
4.91798E-05
6.69719E-05
8.22461E-05
8.74495E-05
8.03998E-05
6.29435E-05
4.21302E-05
2.80308E-05
2.08133E-05
1.59457E-05
1.15816E-05
7.88891E-06
2.85344E-06
-3.52483E-06
-1.12459E-05
-1.561E-05
-1.52743E-05
-1.2253E-05
-8.22461E-06
-3.86053E-06
-1.51064E-06
-3.02129E-06
-1.14137E-05
-2.36667E-05
-2.90379E-05
-2.26596E-05
-1.19173E-05
-4.02838E-06
6.71397E-07
5.53902E-06
1.12459E-05
1.2253E-05
8.89601E-06
8.89601E-06
1.30922E-05
1.59457E-05
1.49386E-05
1.19173E-05
1.05745E-05
1.15816E-05
1.59457E-05
1.8967E-05
1.59457E-05
1.09102E-05
1.15816E-05
1.72885E-05
1.8967E-05
1.561E-05
1.15816E-05
9.23171E-06
7.38537E-06
5.20333E-06
2.51774E-06
-1.51064E-06
-1.17494E-06
0
2.85344E-06
5.53902E-06
1.05745E-05
1.69528E-05
2.13169E-05
2.19882E-05
1.86313E-05
1.15816E-05
4.53193E-06
2.51774E-06
4.86763E-06
5.87472E-06
4.36408E-06
3.18914E-06
5.20333E-06
7.88891E-06
1.05745E-05
1.39315E-05
1.69528E-05
1.59457E-05
1.46029E-05
1.46029E-05
1.46029E-05
1.2253E-05
1.0071E-05
1.04067E-05
1.42672E-05
1.76242E-05
2.29953E-05
2.98772E-05
3.20592E-05
2.92058E-05
2.46738E-05
1.96384E-05
1.46029E-05
1.35958E-05
1.20851E-05
7.21752E-06
2.51774E-06
1.17494E-06
2.51774E-06
6.54612E-06
1.1078E-05
1.2253E-05
1.25887E-05
1.32601E-05
1.46029E-05
1.72885E-05
2.06455E-05
2.1149E-05
2.04776E-05
1.91348E-05
1.91348E-05
1.96384E-05
1.93027E-05
1.91348E-05
1.84634E-05
2.06455E-05
2.13169E-05
1.59457E-05
1.05745E-05
9.23171E-06
9.23171E-06
7.72107E-06
6.21042E-06
4.53193E-06
3.18914E-06
2.51774E-06
3.02129E-06
2.85344E-06
-1.0071E-06
-6.21042E-06
-7.55322E-06
-6.21042E-06
-3.69268E-06
-1.67849E-07
1.51064E-06
1.0071E-06
1.34279E-06
-2.51774E-06
-7.55322E-06
-5.70687E-06
3.86053E-06
1.1078E-05
1.37636E-05
1.05745E-05
-5.03548E-07
-9.90311E-06
-8.05676E-06
-1.0071E-06
5.70687E-06
1.42672E-05
2.50095E-05
3.3402E-05
3.77661E-05
4.24659E-05
4.3473E-05
3.54162E-05
2.46738E-05
1.94705E-05
2.6688E-05
3.74304E-05
4.24659E-05
4.28016E-05
3.94446E-05
3.32342E-05
2.73594E-05
2.50095E-05
2.53452E-05
2.36667E-05
1.8967E-05
1.39315E-05
1.19173E-05
1.40993E-05
1.42672E-05
9.90311E-06
5.03548E-06
1.84634E-06
1.67849E-06
6.37827E-06
1.30922E-05
1.69528E-05
1.59457E-05
1.04067E-05
5.20333E-06
3.86053E-06
4.19623E-06
4.69978E-06
1.84634E-06
-2.85344E-06
-3.35698E-06
-3.69268E-06
-5.03548E-06
-5.53902E-06
-6.54612E-06
-5.20333E-06
-3.86053E-06
-3.86053E-06
-5.03548E-06
-6.37827E-06
-7.55322E-06
-8.22461E-06
-4.86763E-06
3.69268E-06
1.59457E-05
2.83665E-05
3.47448E-05
3.44091E-05
3.07164E-05
2.51774E-05
1.84634E-05
1.35958E-05
9.06386E-06
4.53193E-06
5.87472E-06
1.2253E-05
2.18204E-05
3.122E-05
3.6759E-05
3.65911E-05
2.98772E-05
1.96384E-05
9.90311E-06
1.67849E-07
-6.88182E-06
-9.56741E-06
-1.14137E-05
-1.52743E-05
-1.79599E-05
-1.8967E-05
-1.81277E-05
-1.20851E-05
-4.86763E-06
1.84634E-06
6.88182E-06
9.23171E-06
1.17494E-05
1.93027E-05
2.6688E-05
2.83665E-05
2.7863E-05
2.83665E-05
3.03807E-05
2.85344E-05
2.40024E-05
2.51774E-05
3.02129E-05
3.10521E-05
2.73594E-05
1.99741E-05
1.39315E-05
1.19173E-05
1.32601E-05
9.73526E-06
0
-1.09102E-05
-1.62814E-05
-1.561E-05
-1.12459E-05
-6.88182E-06
-2.34989E-06
2.34989E-06
5.87472E-06
1.12459E-05
1.76242E-05
2.50095E-05
3.20592E-05
3.64233E-05
3.70947E-05
3.44091E-05
2.90379E-05
2.3331E-05
2.03098E-05
1.74563E-05
1.46029E-05
1.12459E-05
6.21042E-06
1.17494E-06
-1.84634E-06
-2.01419E-06
-2.34989E-06
-5.20333E-06
-5.53902E-06
-1.17494E-06
5.03548E-07
-5.03548E-07
0
0
-1.17494E-06
1.17494E-06
5.87472E-06
8.56031E-06
7.55322E-06
1.67849E-07
-7.72107E-06
-6.71397E-06
3.86053E-06
1.72885E-05
2.73594E-05
3.37377E-05
3.81018E-05
3.13878E-05
1.62814E-05
5.20333E-06
8.39246E-07
8.39246E-07
1.84634E-06
2.51774E-06
7.21752E-06
1.79599E-05
2.93736E-05
3.50805E-05
3.18914E-05
2.6688E-05
2.6688E-05
2.90379E-05
2.87022E-05
2.63523E-05
2.26596E-05
1.8967E-05
1.66171E-05
1.35958E-05
1.25887E-05
1.67849E-05
2.06455E-05
2.26596E-05
2.26596E-05
2.19882E-05
1.8967E-05
1.52743E-05
1.46029E-05
1.72885E-05
1.8967E-05
1.7792E-05
1.4435E-05
1.19173E-05
9.39956E-06
6.54612E-06
3.69268E-06
0
-3.35698E-07
2.51774E-06
3.35698E-06
-1.67849E-06
-6.54612E-06
-7.21752E-06
-5.53902E-06
-5.53902E-06
-3.52483E-06
1.51064E-06
5.03548E-06
8.56031E-06
1.29244E-05
1.57778E-05
1.7792E-05
1.96384E-05
1.62814E-05
1.12459E-05
7.72107E-06
7.88891E-06
9.23171E-06
9.56741E-06
7.21752E-06
3.69268E-06
1.17494E-06
1.51064E-06
6.37827E-06
1.561E-05
2.23239E-05
2.26596E-05
2.04776E-05
1.86313E-05
1.64492E-05
9.90311E-06
1.0071E-06
-2.18204E-06
-3.35698E-07
8.39246E-07
2.51774E-06
5.20333E-06
7.88891E-06
1.19173E-05
1.59457E-05
1.99741E-05
2.29953E-05
2.46738E-05
2.6688E-05
3.13878E-05
3.18914E-05
2.6688E-05
1.66171E-05
5.03548E-06
-4.86763E-06
-1.30922E-05
-1.96384E-05
-2.06455E-05
-1.91348E-05
-1.76242E-05
-1.35958E-05
-1.15816E-05
-1.09102E-05
-6.54612E-06
5.03548E-07
1.25887E-05
2.98772E-05
4.7837E-05
6.32792E-05
7.26787E-05
7.15038E-05
5.80758E-05
4.24659E-05
3.13878E-05
2.76951E-05
2.92058E-05
2.93736E-05
2.60166E-05
2.19882E-05
1.561E-05
7.88891E-06
2.34989E-06
-8.39246E-07
-3.18914E-06
-3.52483E-06
-3.18914E-06
-3.69268E-06
-4.36408E-06
-3.52483E-06
-5.03548E-07
1.51064E-06
-1.67849E-07
-2.85344E-06
-3.18914E-06
-3.35698E-07
3.69268E-06
7.72107E-06
6.88182E-06
-4.86763E-06
-2.40024E-05
-3.86053E-05
-3.87732E-05
-3.0045E-05
-1.93027E-05
-1.12459E-05
-3.52483E-06
6.21042E-06
1.49386E-05
1.93027E-05
2.13169E-05
2.55131E-05
3.17235E-05
3.57519E-05
3.27306E-05
2.63523E-05
2.40024E-05
2.26596E-05
1.82956E-05
1.39315E-05
1.51064E-05
2.13169E-05
2.81987E-05
3.25628E-05
3.3402E-05
3.0045E-05
2.09812E-05
1.2253E-05
9.56741E-06
7.88891E-06
4.36408E-06
2.51774E-06
4.19623E-06
7.88891E-06
1.02388E-05
1.05745E-05
1.09102E-05
1.15816E-05
1.29244E-05
1.35958E-05
1.0071E-05
7.88891E-06
1.14137E-05
1.64492E-05
2.18204E-05
2.97093E-05
3.79339E-05
4.09552E-05
4.21302E-05
4.28016E-05
4.21302E-05
3.70947E-05
2.80308E-05
1.86313E-05
1.30922E-05
8.22461E-06
3.02129E-06
-2.18204E-06
-6.21042E-06
-6.71397E-06
-5.53902E-06
-7.88891E-06
-1.29244E-05
-1.32601E-05
-1.1078E-05
-9.56741E-06
-8.22461E-06
-7.04967E-06
-4.53193E-06
1.67849E-07
2.85344E-06
8.22461E-06
1.37636E-05
1.81277E-05
2.26596E-05
2.80308E-05
3.17235E-05
3.40734E-05
3.44091E-05
3.39055E-05
3.30663E-05
2.80308E-05
2.03098E-05
1.19173E-05
7.88891E-06
7.88891E-06
5.20333E-06
5.03548E-07
-2.85344E-06
-3.52483E-06
-5.03548E-06
-3.35698E-06
-2.51774E-06
-3.86053E-06
-2.85344E-06
8.39246E-07
2.51774E-06
1.67849E-06
1.51064E-06
8.39246E-07
1.67849E-07
1.51064E-06
4.36408E-06
8.89601E-06
1.25887E-05
1.39315E-05
1.561E-05
1.69528E-05
1.52743E-05
1.59457E-05
1.86313E-05
1.82956E-05
1.57778E-05
1.2253E-05
6.37827E-06
5.03548E-07
-5.87472E-06
-1.09102E-05
-1.30922E-05
-1.29244E-05
-1.32601E-05
-1.25887E-05
-6.04257E-06
5.53902E-06
1.72885E-05
2.73594E-05
3.39055E-05
3.79339E-05
3.86053E-05
3.42412E-05
2.73594E-05
2.3331E-05
2.38346E-05
2.63523E-05
2.93736E-05
3.30663E-05
3.44091E-05
3.54162E-05
3.57519E-05
3.35698E-05
3.0045E-05
2.53452E-05
1.35958E-05
3.35698E-07
-1.05745E-05
-1.94705E-05
-2.46738E-05
-2.80308E-05
-2.98772E-05
-2.65202E-05
-1.98062E-05
-1.05745E-05
2.01419E-06
1.52743E-05
2.43381E-05
2.87022E-05
3.13878E-05
3.50805E-05
3.60876E-05
3.17235E-05
2.93736E-05
3.07164E-05
3.37377E-05
4.0116E-05
5.15297E-05
6.09293E-05
6.16007E-05
5.62295E-05
4.448E-05
2.97093E-05
1.49386E-05
1.17494E-06
-9.73526E-06
-1.52743E-05
-1.62814E-05
-1.59457E-05
-1.74563E-05
-1.79599E-05
-1.4435E-05
-1.12459E-05
-9.06386E-06
-6.21042E-06
-3.18914E-06
2.34989E-06
1.2253E-05
1.98062E-05
2.09812E-05
1.46029E-05
9.23171E-06
7.21752E-06
2.01419E-06
-4.86763E-06
-1.09102E-05
-1.35958E-05
-1.29244E-05
-9.06386E-06
-2.51774E-06
1.05745E-05
2.53452E-05
3.47448E-05
3.74304E-05
3.64233E-05
3.07164E-05
2.38346E-05
1.72885E-05
1.42672E-05
1.19173E-05
8.89601E-06
5.20333E-06
2.51774E-06
8.39246E-07
5.03548E-07
3.35698E-07
-3.35698E-07
1.67849E-07
3.18914E-06
4.86763E-06
4.86763E-06
3.02129E-06
-8.39246E-07
-4.19623E-06
-3.52483E-06
-2.85344E-06
-2.85344E-06
-1.17494E-06
-1.17494E-06
-1.51064E-06
1.17494E-06
4.86763E-06
7.88891E-06
9.73526E-06
1.1078E-05
1.49386E-05
2.1149E-05
2.38346E-05
2.36667E-05
2.4506E-05
2.46738E-05
2.60166E-05
2.63523E-05
2.29953E-05
2.1149E-05
2.16526E-05
2.06455E-05
1.76242E-05
1.4435E-05
1.32601E-05
1.39315E-05
1.40993E-05
1.46029E-05
1.59457E-05
1.72885E-05
1.72885E-05
1.62814E-05
1.52743E-05
1.67849E-05
2.04776E-05
2.38346E-05
2.60166E-05
2.4506E-05
1.72885E-05
1.32601E-05
1.86313E-05
2.70237E-05
3.20592E-05
3.20592E-05
2.63523E-05
2.13169E-05
1.57778E-05
8.56031E-06
4.36408E-06
2.51774E-06
-1.51064E-06
-4.19623E-06
-5.53902E-06
-6.71397E-06
-5.53902E-06
-3.02129E-06
-2.34989E-06
-5.03548E-07
4.19623E-06
7.38537E-06
8.39246E-06
7.04967E-06
4.53193E-06
2.85344E-06
3.02129E-06
5.20333E-06
8.22461E-06
8.56031E-06
8.39246E-06
8.72816E-06
9.73526E-06
1.32601E-05
1.72885E-05
1.8967E-05
1.84634E-05
1.84634E-05
1.51064E-05
8.89601E-06
2.18204E-06
0
1.67849E-06
3.52483E-06
3.02129E-06
1.84634E-06
1.0071E-06
1.67849E-07
-1.67849E-06
-1.84634E-06
3.86053E-06
7.55322E-06
7.72107E-06
1.2253E-05
1.99741E-05
2.1149E-05
1.54421E-05
1.04067E-05
5.20333E-06
2.18204E-06
4.53193E-06
1.02388E-05
1.59457E-05
2.63523E-05
4.0116E-05
5.47189E-05
6.52934E-05
7.20073E-05
7.63714E-05
7.48608E-05
6.29435E-05
4.73335E-05
3.28985E-05
2.23239E-05
1.79599E-05
1.32601E-05
5.87472E-06
-2.68559E-06
-1.39315E-05
-2.43381E-05
-2.92058E-05
-2.92058E-05
-2.53452E-05
-1.94705E-05
-1.42672E-05
-8.72816E-06
-8.39246E-07
5.87472E-06
9.73526E-06
1.12459E-05
1.35958E-05
1.59457E-05
1.46029E-05
1.12459E-05
9.73526E-06
8.56031E-06
7.55322E-06
7.38537E-06
5.20333E-06
4.36408E-06
5.20333E-06
7.21752E-06
8.39246E-06
7.88891E-06
4.36408E-06
-1.84634E-06
-6.21042E-06
-8.56031E-06
-1.09102E-05
-1.17494E-05
-9.56741E-06
-6.88182E-06
-4.36408E-06
-2.85344E-06
-2.01419E-06
-1.0071E-06
3.35698E-07
1.67849E-06
3.35698E-06
9.90311E-06
1.93027E-05
2.70237E-05
3.07164E-05
3.03807E-05
2.83665E-05
2.87022E-05
3.25628E-05
3.57519E-05
3.45769E-05
3.47448E-05
3.47448E-05
3.47448E-05
3.40734E-05
3.32342E-05
2.92058E-05
2.13169E-05
1.4435E-05
1.2253E-05
1.49386E-05
1.69528E-05
1.51064E-05
1.30922E-05
1.05745E-05
7.88891E-06
5.03548E-06
1.84634E-06
1.17494E-06
2.85344E-06
2.51774E-06
-1.17494E-06
-6.54612E-06
-8.89601E-06
-6.54612E-06
8.39246E-07
8.89601E-06
1.35958E-05
1.51064E-05
1.54421E-05
1.52743E-05
1.25887E-05
6.88182E-06
1.67849E-06
6.71397E-07
5.20333E-06
1.32601E-05
1.93027E-05
1.82956E-05
1.40993E-05
1.19173E-05
1.2253E-05
1.561E-05
2.09812E-05
2.6688E-05
2.6688E-05
2.50095E-05
2.73594E-05
2.70237E-05
2.63523E-05
2.90379E-05
3.15557E-05
2.6688E-05
1.79599E-05
1.04067E-05
5.03548E-06
2.34989E-06
-1.67849E-07
-3.52483E-06
-4.69978E-06
-3.02129E-06
3.35698E-07
3.18914E-06
2.51774E-06
1.84634E-06
1.17494E-06
5.03548E-07
1.17494E-06
-3.35698E-07
-5.20333E-06
-1.04067E-05
-1.29244E-05
-1.24208E-05
-8.56031E-06
-4.19623E-06
-2.18204E-06
1.67849E-07
1.51064E-06
2.85344E-06
1.67849E-06
0
2.01419E-06
8.72816E-06
1.66171E-05
2.13169E-05
2.46738E-05
2.50095E-05
2.61845E-05
3.03807E-05
3.35698E-05
3.13878E-05
2.80308E-05
2.63523E-05
2.43381E-05
2.09812E-05
1.96384E-05
1.93027E-05
1.66171E-05
1.39315E-05
1.19173E-05
9.90311E-06
1.17494E-05
1.32601E-05
8.22461E-06
-8.39246E-07
-8.89601E-06
-1.30922E-05
-1.42672E-05
-1.561E-05
-1.79599E-05
-1.93027E-05
-1.84634E-05
-1.64492E-05
-9.23171E-06
4.53193E-06
2.06455E-05
3.47448E-05
4.80049E-05
5.97543E-05
6.79789E-05
6.73075E-05
6.19364E-05
5.74044E-05
5.30404E-05
4.53193E-05
3.54162E-05
2.63523E-05
2.1149E-05
1.99741E-05
1.72885E-05
1.35958E-05
8.89601E-06
8.39246E-07
-5.70687E-06
-4.19623E-06
-5.03548E-07
2.51774E-06
3.35698E-06
1.17494E-06
1.51064E-06
5.03548E-06
7.38537E-06
6.88182E-06
4.36408E-06
1.84634E-06
-1.17494E-06
-3.86053E-06
-5.53902E-06
-3.52483E-06
1.67849E-06
7.88891E-06
1.49386E-05
1.86313E-05
1.8967E-05
1.91348E-05
1.72885E-05
1.02388E-05
1.51064E-06
-4.19623E-06
-6.54612E-06
-5.37118E-06
-3.02129E-06
-8.39246E-07
1.51064E-06
1.67849E-06
5.53902E-06
1.25887E-05
2.03098E-05
3.0045E-05
4.11231E-05
4.68299E-05
4.61585E-05
4.14588E-05
3.64233E-05
3.3402E-05
2.93736E-05
2.19882E-05
1.14137E-05
1.84634E-06
-3.52483E-06
-6.21042E-06
-8.22461E-06
-6.21042E-06
-1.17494E-06
1.17494E-06
-3.35698E-07
-8.39246E-07
1.84634E-06
5.53902E-06
8.22461E-06
7.88891E-06
8.05676E-06
9.56741E-06
8.39246E-06
6.54612E-06
3.18914E-06
-3.35698E-07
1.67849E-07
2.34989E-06
2.51774E-06
5.20333E-06
8.39246E-06
1.15816E-05
1.29244E-05
9.56741E-06
4.86763E-06
2.68559E-06
3.18914E-06
5.20333E-06
7.55322E-06
8.05676E-06
7.38537E-06
3.86053E-06
3.35698E-07
3.86053E-06
1.24208E-05
1.86313E-05
2.13169E-05
2.65202E-05
3.07164E-05
2.97093E-05
2.13169E-05
1.30922E-05
6.88182E-06
6.71397E-07
-1.84634E-06
1.51064E-06
6.04257E-06
5.87472E-06
5.20333E-06
5.87472E-06
5.70687E-06
6.54612E-06
9.56741E-06
1.52743E-05
2.09812E-05
2.4506E-05
2.75273E-05
2.93736E-05
3.07164E-05
2.93736E-05
2.50095E-05
1.99741E-05
1.76242E-05
1.7792E-05
1.66171E-05
9.90311E-06
-1.0071E-06
-9.90311E-06
-1.25887E-05
-1.39315E-05
-1.66171E-05
-1.82956E-05
-1.71206E-05
-1.1078E-05
-5.03548E-06
-2.34989E-06
3.35698E-07
7.21752E-06
1.52743E-05
2.16526E-05
2.85344E-05
3.20592E-05
3.28985E-05
3.07164E-05
2.6688E-05
2.40024E-05
2.80308E-05
3.60876E-05
4.81727E-05
6.02579E-05
6.76432E-05
6.61326E-05
5.38796E-05
3.91089E-05
2.61845E-05
1.54421E-05
7.88891E-06
5.03548E-06
3.35698E-07
-5.53902E-06
-1.04067E-05
-1.37636E-05
-1.72885E-05
-2.03098E-05
-2.36667E-05
-2.3331E-05
-1.79599E-05
-1.14137E-05
-4.19623E-06
4.36408E-06
1.25887E-05
1.69528E-05
1.86313E-05
1.76242E-05
1.69528E-05
1.82956E-05
1.79599E-05
1.32601E-05
7.55322E-06
8.39246E-07
-4.19623E-06
-6.88182E-06
-6.88182E-06
-3.18914E-06
3.86053E-06
1.19173E-05
1.82956E-05
2.03098E-05
2.04776E-05
2.58488E-05
3.03807E-05
2.87022E-05
2.31632E-05
1.66171E-05
1.2253E-05
9.23171E-06
7.55322E-06
6.54612E-06
7.21752E-06
1.32601E-05
2.34989E-05
3.03807E-05
2.83665E-05
1.99741E-05
1.40993E-05
1.02388E-05
7.21752E-06
4.86763E-06
4.53193E-06
4.36408E-06
4.69978E-06
3.86053E-06
2.18204E-06
1.84634E-06
5.87472E-06
1.15816E-05
1.64492E-05
1.8967E-05
1.76242E-05
1.42672E-05
1.32601E-05
1.30922E-05
1.42672E-05
1.32601E-05
1.12459E-05
9.23171E-06
1.09102E-05
1.42672E-05
1.66171E-05
1.52743E-05
1.19173E-05
6.88182E-06
3.35698E-07
-5.87472E-06
-8.89601E-06
-8.22461E-06
-7.04967E-06
-5.87472E-06
-4.19623E-06
-3.86053E-06
-2.18204E-06
2.34989E-06
6.71397E-06
1.02388E-05
1.12459E-05
1.25887E-05
1.72885E-05
2.63523E-05
3.07164E-05
2.87022E-05
2.76951E-05
2.90379E-05
2.93736E-05
2.70237E-05
2.28275E-05
1.99741E-05
1.76242E-05
1.37636E-05
1.02388E-05
7.04967E-06
2.51774E-06
2.51774E-06
5.70687E-06
7.38537E-06
7.04967E-06
3.86053E-06
8.39246E-07
8.39246E-07
1.84634E-06
1.67849E-06
5.20333E-06
9.56741E-06
1.29244E-05
1.4435E-05
1.15816E-05
1.0071E-05
1.32601E-05
1.32601E-05
1.32601E-05
1.72885E-05
2.13169E-05
2.09812E-05
1.69528E-05
1.4435E-05
1.47707E-05
1.37636E-05
1.32601E-05
1.59457E-05
1.82956E-05
1.87991E-05
1.86313E-05
1.35958E-05
2.01419E-06
-4.19623E-06
-5.53902E-06
-5.70687E-06
-8.56031E-06
-1.39315E-05
-1.72885E-05
-1.46029E-05
-6.88182E-06
3.02129E-06
1.4435E-05
2.53452E-05
3.47448E-05
3.94446E-05
3.81018E-05
3.39055E-05
2.93736E-05
2.80308E-05
2.6688E-05
2.58488E-05
2.58488E-05
2.63523E-05
2.48417E-05
2.13169E-05
1.52743E-05
5.20333E-06
-8.22461E-06
-1.561E-05
-1.66171E-05
-1.46029E-05
-1.35958E-05
-1.25887E-05
-1.0071E-05
-6.37827E-06
-5.53902E-06
-5.53902E-06
-2.18204E-06
5.20333E-06
1.72885E-05
3.39055E-05
5.15297E-05
6.17685E-05
6.27756E-05
5.69009E-05
5.05226E-05
4.28016E-05
3.30663E-05
2.3331E-05
1.39315E-05
4.69978E-06
-2.51774E-06
-8.22461E-06
-1.05745E-05
-9.73526E-06
-5.20333E-06
-5.03548E-07
2.85344E-06
5.20333E-06
7.04967E-06
6.54612E-06
2.51774E-06
-2.68559E-06
-5.53902E-06
-6.88182E-06
-6.21042E-06
-3.86053E-06
1.17494E-06
5.87472E-06
1.02388E-05
1.49386E-05
1.86313E-05
1.82956E-05
1.82956E-05
1.96384E-05
1.93027E-05
1.8967E-05
1.99741E-05
2.04776E-05
2.24918E-05
2.50095E-05
2.31632E-05
1.84634E-05
1.42672E-05
1.12459E-05
8.89601E-06
7.88891E-06
8.56031E-06
1.02388E-05
1.09102E-05
1.09102E-05
1.05745E-05
9.73526E-06
9.56741E-06
9.06386E-06
7.21752E-06
2.85344E-06
1.51064E-06
3.18914E-06
3.52483E-06
2.18204E-06
1.51064E-06
2.18204E-06
4.53193E-06
5.87472E-06
5.87472E-06
5.87472E-06
4.53193E-06
3.69268E-06
2.34989E-06
1.17494E-06
2.85344E-06
7.04967E-06
8.89601E-06
7.88891E-06
5.87472E-06
2.51774E-06
6.71397E-07
3.52483E-06
7.88891E-06
1.02388E-05
1.32601E-05
1.66171E-05
1.93027E-05
2.04776E-05
2.13169E-05
2.36667E-05
2.50095E-05
2.60166E-05
2.46738E-05
1.79599E-05
1.02388E-05
8.56031E-06
1.19173E-05
1.49386E-05
1.72885E-05
2.06455E-05
2.13169E-05
2.03098E-05
2.13169E-05
2.71916E-05
3.47448E-05
3.60876E-05
3.47448E-05
3.60876E-05
3.72625E-05
3.54162E-05
3.20592E-05
2.60166E-05
1.99741E-05
1.52743E-05
1.09102E-05
8.39246E-06
4.86763E-06
8.39246E-07
-3.35698E-06
-7.55322E-06
-8.56031E-06
-6.71397E-06
-4.53193E-06
-3.69268E-06
-3.52483E-06
-3.69268E-06
-2.85344E-06
6.71397E-07
5.20333E-06
9.56741E-06
1.17494E-05
1.15816E-05
1.05745E-05
1.05745E-05
9.56741E-06
7.72107E-06
5.87472E-06
2.01419E-06
-1.84634E-06
-1.34279E-06
-5.03548E-07
0
0
2.51774E-06
6.21042E-06
6.88182E-06
7.21752E-06
9.23171E-06
9.23171E-06
6.54612E-06
3.02129E-06
8.39246E-07
4.86763E-06
1.66171E-05
3.17235E-05
4.07874E-05
4.21302E-05
3.87732E-05
3.60876E-05
3.62554E-05
3.27306E-05
2.13169E-05
9.23171E-06
1.17494E-06
-2.85344E-06
-5.70687E-06
-7.21752E-06
-6.21042E-06
-6.88182E-06
-1.02388E-05
-1.20851E-05
-1.25887E-05
-1.09102E-05
-4.19623E-06
2.34989E-06
6.88182E-06
1.32601E-05
1.79599E-05
1.99741E-05
2.01419E-05
1.86313E-05
1.37636E-05
9.23171E-06
1.19173E-05
2.13169E-05
3.70947E-05
5.32082E-05
5.97543E-05
5.60616E-05
4.81727E-05
4.09552E-05
2.85344E-05
1.30922E-05
4.53193E-06
3.18914E-06
3.52483E-06
2.51774E-06
1.67849E-07
3.35698E-07
3.18914E-06
5.70687E-06
6.54612E-06
5.87472E-06
3.02129E-06
1.84634E-06
4.19623E-06
5.70687E-06
5.53902E-06
3.52483E-06
-1.67849E-07
-8.39246E-07
2.34989E-06
6.54612E-06
6.37827E-06
1.17494E-06
-3.18914E-06
-2.85344E-06
-1.34279E-06
2.85344E-06
7.88891E-06
8.89601E-06
6.54612E-06
2.68559E-06
-1.51064E-06
-2.18204E-06
3.18914E-06
1.09102E-05
1.59457E-05
1.69528E-05
1.05745E-05
3.18914E-06
1.51064E-06
4.69978E-06
1.0071E-05
1.52743E-05
1.81277E-05
1.94705E-05
2.1149E-05
2.18204E-05
1.96384E-05
1.59457E-05
1.32601E-05
1.39315E-05
1.51064E-05
1.82956E-05
2.3331E-05
2.3331E-05
1.87991E-05
1.7792E-05
1.94705E-05
2.13169E-05
2.19882E-05
2.23239E-05
2.3331E-05
2.50095E-05
2.3331E-05
2.09812E-05
2.31632E-05
2.76951E-05
3.0045E-05
2.71916E-05
1.93027E-05
1.46029E-05
1.42672E-05
1.46029E-05
1.25887E-05
9.23171E-06
6.54612E-06
6.37827E-06
6.88182E-06
6.54612E-06
6.04257E-06
4.53193E-06
4.19623E-06
4.53193E-06
1.51064E-06
-2.51774E-06
-3.86053E-06
-7.04967E-06
-1.29244E-05
-1.86313E-05
-2.03098E-05
-1.82956E-05
-1.35958E-05
-8.89601E-06
-7.55322E-06
-7.04967E-06
-3.86053E-06
2.34989E-06
8.89601E-06
1.32601E-05
1.49386E-05
1.35958E-05
1.32601E-05
1.91348E-05
2.63523E-05
3.32342E-05
4.41443E-05
5.27047E-05
5.35439E-05
5.05226E-05
4.54871E-05
4.17945E-05
3.99481E-05
3.47448E-05
2.73594E-05
1.91348E-05
1.15816E-05
8.22461E-06
8.56031E-06
8.56031E-06
4.69978E-06
-2.18204E-06
-6.88182E-06
-4.86763E-06
1.17494E-06
5.87472E-06
6.37827E-06
2.85344E-06
-5.03548E-07
8.39246E-07
2.51774E-06
4.86763E-06
8.22461E-06
1.05745E-05
1.19173E-05
1.2253E-05
1.02388E-05
7.55322E-06
7.88891E-06
9.23171E-06
8.89601E-06
7.88891E-06
7.88891E-06
1.02388E-05
1.25887E-05
1.59457E-05
1.99741E-05
2.03098E-05
1.59457E-05
1.561E-05
1.67849E-05
1.1078E-05
-1.67849E-07
-9.90311E-06
-1.37636E-05
-1.46029E-05
-1.86313E-05
-2.56809E-05
-2.80308E-05
-2.26596E-05
-1.59457E-05
-1.02388E-05
-3.18914E-06
4.19623E-06
1.32601E-05
2.29953E-05
3.32342E-05
4.0116E-05
4.0116E-05
3.81018E-05
4.448E-05
5.70687E-05
6.74754E-05
7.10002E-05
6.63005E-05
5.60616E-05
4.07874E-05
2.46738E-05
1.25887E-05
4.19623E-06
-5.20333E-06
-1.42672E-05
-2.16526E-05
-2.50095E-05
-2.40024E-05
-1.96384E-05
-9.56741E-06
-4.19623E-06
-1.67849E-07
2.85344E-06
4.36408E-06
4.53193E-06
6.54612E-06
9.73526E-06
1.25887E-05
1.2253E-05
8.56031E-06
7.21752E-06
7.21752E-06
5.03548E-06
5.70687E-06
8.89601E-06
1.0071E-05
8.22461E-06
5.53902E-06
2.51774E-06
2.18204E-06
3.86053E-06
6.54612E-06
1.19173E-05
1.69528E-05
1.84634E-05
1.66171E-05
1.32601E-05
1.32601E-05
1.35958E-05
1.19173E-05
1.2253E-05
1.84634E-05
2.80308E-05
3.70947E-05
4.0116E-05
3.77661E-05
3.3402E-05
2.71916E-05
2.03098E-05
1.52743E-05
1.15816E-05
1.05745E-05
1.12459E-05
1.1078E-05
7.72107E-06
5.20333E-06
3.86053E-06
3.02129E-06
5.20333E-06
7.21752E-06
6.54612E-06
6.54612E-06
6.54612E-06
6.21042E-06
7.21752E-06
7.72107E-06
5.53902E-06
6.54612E-06
9.73526E-06
1.2253E-05
1.29244E-05
1.15816E-05
9.23171E-06
7.55322E-06
6.88182E-06
7.21752E-06
7.38537E-06
7.04967E-06
5.70687E-06
5.03548E-06
2.51774E-06
1.51064E-06
2.18204E-06
4.53193E-06
7.88891E-06
1.05745E-05
1.25887E-05
1.4435E-05
1.561E-05
1.57778E-05
1.99741E-05
2.6688E-05
3.32342E-05
3.84375E-05
4.14588E-05
4.0116E-05
3.79339E-05
3.72625E-05
3.45769E-05
2.92058E-05
2.46738E-05
2.26596E-05
1.86313E-05
1.25887E-05
7.21752E-06
2.51774E-06
-8.39246E-07
-1.34279E-06
-2.34989E-06
-4.53193E-06
-5.20333E-06
-4.19623E-06
-2.34989E-06
-1.67849E-06
-2.85344E-06
-2.18204E-06
3.52483E-06
7.04967E-06
4.53193E-06
-1.67849E-07
-3.02129E-06
-3.52483E-06
-4.53193E-06
-7.55322E-06
-7.38537E-06
-6.54612E-06
-8.89601E-06
-9.56741E-06
-4.86763E-06
2.51774E-06
8.56031E-06
1.76242E-05
2.81987E-05
3.42412E-05
3.47448E-05
3.10521E-05
2.70237E-05
2.58488E-05
2.53452E-05
2.29953E-05
1.69528E-05
1.19173E-05
1.37636E-05
2.03098E-05
2.46738E-05
2.4506E-05
2.31632E-05
2.38346E-05
2.31632E-05
1.99741E-05
1.79599E-05
1.86313E-05
1.561E-05
1.0071E-05
5.87472E-06
2.85344E-06
1.51064E-06
3.18914E-06
2.18204E-06
-3.86053E-06
-1.37636E-05
-2.16526E-05
-2.29953E-05
-2.16526E-05
-1.8967E-05
-1.76242E-05
-2.03098E-05
-2.65202E-05
-2.51774E-05
-1.69528E-05
-3.18914E-06
1.79599E-05
4.06195E-05
5.69009E-05
6.59648E-05
6.91539E-05
6.42863E-05
5.22011E-05
4.14588E-05
3.74304E-05
3.65911E-05
3.3402E-05
2.73594E-05
1.99741E-05
1.05745E-05
2.01419E-06
-2.18204E-06
-2.51774E-06
-1.51064E-06
-1.0071E-06
-2.34989E-06
-2.85344E-06
0
0
-8.39246E-07
-8.39246E-07
-1.51064E-06
-3.35698E-06
-4.53193E-06
-1.84634E-06
2.18204E-06
4.02838E-06
3.52483E-06
3.52483E-06
3.69268E-06
5.53902E-06
1.04067E-05
1.51064E-05
1.82956E-05
1.86313E-05
1.81277E-05
1.93027E-05
1.96384E-05
1.72885E-05
1.67849E-05
1.76242E-05
1.64492E-05
1.46029E-05
1.25887E-05
1.42672E-05
1.72885E-05
1.59457E-05
1.15816E-05
9.23171E-06
7.04967E-06
4.53193E-06
3.18914E-06
2.01419E-06
1.51064E-06
3.35698E-07
-1.67849E-07
2.18204E-06
6.88182E-06
1.02388E-05
1.02388E-05
1.02388E-05
9.90311E-06
9.56741E-06
9.39956E-06
1.39315E-05
2.43381E-05
3.52483E-05
4.11231E-05
4.28016E-05
4.24659E-05
4.12909E-05
4.39765E-05
4.48157E-05
3.94446E-05
3.07164E-05
2.26596E-05
1.82956E-05
1.32601E-05
7.21752E-06
4.36408E-06
3.86053E-06
1.67849E-06
3.35698E-07
2.51774E-06
1.17494E-06
-3.52483E-06
-4.69978E-06
-4.69978E-06
-5.20333E-06
-6.21042E-06
-8.39246E-06
-1.12459E-05
-1.2253E-05
-1.09102E-05
-6.54612E-06
-2.18204E-06
5.03548E-07
5.03548E-06
1.09102E-05
1.86313E-05
2.6688E-05
3.20592E-05
3.60876E-05
4.21302E-05
4.39765E-05
3.87732E-05
3.20592E-05
2.60166E-05
2.13169E-05
1.69528E-05
9.23171E-06
1.67849E-06
-2.18204E-06
-3.52483E-06
-2.85344E-06
-2.51774E-06
-1.51064E-06
8.39246E-07
2.01419E-06
1.84634E-06
2.18204E-06
1.67849E-06
2.18204E-06
3.86053E-06
2.85344E-06
-8.39246E-07
-2.01419E-06
8.39246E-07
6.88182E-06
1.46029E-05
1.86313E-05
2.13169E-05
2.46738E-05
2.71916E-05
2.80308E-05
2.65202E-05
2.38346E-05
1.94705E-05
1.51064E-05
9.73526E-06
2.85344E-06
-4.36408E-06
-8.72816E-06
-1.04067E-05
-1.19173E-05
-1.35958E-05
-1.57778E-05
-1.79599E-05
-1.82956E-05
-1.2253E-05
-3.18914E-06
7.04967E-06
1.79599E-05
2.60166E-05
3.07164E-05
3.54162E-05
3.87732E-05
3.91089E-05
3.94446E-05
3.74304E-05
3.74304E-05
4.14588E-05
4.11231E-05
3.54162E-05
2.80308E-05
1.86313E-05
1.27565E-05
9.90311E-06
5.87472E-06
2.18204E-06
-1.0071E-06
-3.18914E-06
-2.85344E-06
-3.86053E-06
-5.87472E-06
-7.04967E-06
-8.39246E-06
-9.90311E-06
-1.04067E-05
-9.23171E-06
-8.56031E-06
-8.22461E-06
-6.21042E-06
-4.86763E-06
-2.51774E-06
3.18914E-06
1.15816E-05
1.96384E-05
2.53452E-05
2.80308E-05
3.03807E-05
3.37377E-05
3.60876E-05
3.60876E-05
3.3402E-05
3.0045E-05
2.87022E-05
2.83665E-05
2.81987E-05
2.40024E-05
1.67849E-05
9.56741E-06
1.84634E-06
-3.86053E-06
-4.86763E-06
-4.53193E-06
-5.37118E-06
-5.70687E-06
-7.21752E-06
-7.38537E-06
-5.70687E-06
-2.34989E-06
5.53902E-06
1.64492E-05
2.76951E-05
3.65911E-05
3.91089E-05
3.40734E-05
2.53452E-05
1.79599E-05
1.37636E-05
1.17494E-05
9.90311E-06
5.87472E-06
1.84634E-06
8.39246E-07
-1.0071E-06
-8.22461E-06
-1.46029E-05
-1.35958E-05
-8.22461E-06
-5.53902E-06
-4.53193E-06
-1.67849E-07
8.56031E-06
1.59457E-05
1.94705E-05
2.18204E-05
2.85344E-05
4.04517E-05
4.96834E-05
5.06905E-05
4.75013E-05
4.51514E-05
4.28016E-05
3.86053E-05
3.27306E-05
2.87022E-05
2.26596E-05
1.32601E-05
3.52483E-06
-2.85344E-06
-5.53902E-06
-8.22461E-06
-9.90311E-06
-1.1078E-05
-1.19173E-05
-1.25887E-05
-8.39246E-06
-3.02129E-06
-3.35698E-07
2.18204E-06
5.03548E-06
7.55322E-06
1.24208E-05
1.98062E-05
2.7863E-05
3.30663E-05
3.60876E-05
3.62554E-05
3.27306E-05
2.65202E-05
2.06455E-05
1.69528E-05
1.12459E-05
2.51774E-06
-7.55322E-06
-1.82956E-05
-2.73594E-05
-3.30663E-05
-3.6759E-05
-3.87732E-05
-3.92767E-05
-3.45769E-05
-2.43381E-05
-9.56741E-06
9.23171E-06
3.0045E-05
4.41443E-05
5.15297E-05
5.82437E-05
6.29435E-05
6.02579E-05
5.08583E-05
4.26337E-05
3.72625E-05
3.37377E-05
2.80308E-05
2.04776E-05
1.42672E-05
1.1078E-05
7.72107E-06
2.51774E-06
-5.37118E-06
-1.09102E-05
-1.04067E-05
-6.21042E-06
-6.71397E-07
4.69978E-06
8.22461E-06
1.29244E-05
1.93027E-05
2.24918E-05
2.09812E-05
1.66171E-05
1.25887E-05
1.02388E-05
1.04067E-05
1.25887E-05
1.32601E-05
1.09102E-05
8.22461E-06
6.88182E-06
5.70687E-06
2.01419E-06
-3.35698E-07
2.18204E-06
4.19623E-06
3.18914E-06
1.17494E-06
2.34989E-06
7.21752E-06
9.23171E-06
8.22461E-06
6.37827E-06
5.87472E-06
7.55322E-06
1.15816E-05
1.52743E-05
1.72885E-05
1.69528E-05
1.72885E-05
1.8967E-05
1.86313E-05
1.49386E-05
1.04067E-05
4.86763E-06
-1.51064E-06
-4.19623E-06
-4.36408E-06
-2.85344E-06
1.84634E-06
5.20333E-06
6.54612E-06
9.56741E-06
1.39315E-05
1.76242E-05
2.09812E-05
2.48417E-05
2.53452E-05
2.19882E-05
1.84634E-05
2.06455E-05
2.63523E-05
2.92058E-05
2.92058E-05
3.13878E-05
3.44091E-05
3.37377E-05
3.07164E-05
2.6688E-05
2.3331E-05
1.99741E-05
1.57778E-05
1.0071E-05
5.20333E-06
1.84634E-06
-3.35698E-07
-1.17494E-06
-1.84634E-06
-3.02129E-06
-5.87472E-06
-9.90311E-06
-1.1078E-05
-8.39246E-06
-5.87472E-06
-6.54612E-06
-7.72107E-06
0
1.4435E-05
2.93736E-05
4.11231E-05
4.66621E-05
4.54871E-05
3.86053E-05
2.98772E-05
2.26596E-05
1.52743E-05
1.05745E-05
7.88891E-06
7.21752E-06
6.88182E-06
3.18914E-06
-5.03548E-06
-1.12459E-05
-1.20851E-05
-9.90311E-06
-9.56741E-06
-8.22461E-06
-5.20333E-06
-6.21042E-06
-1.2253E-05
-1.62814E-05
-1.42672E-05
-7.72107E-06
1.84634E-06
1.32601E-05
2.53452E-05
3.60876E-05
4.0116E-05
3.94446E-05
3.74304E-05
3.27306E-05
2.63523E-05
1.94705E-05
9.90311E-06
2.18204E-06
-1.17494E-06
-1.17494E-06
2.34989E-06
6.37827E-06
8.72816E-06
1.12459E-05
1.32601E-05
1.67849E-05
1.98062E-05
1.71206E-05
8.22461E-06
-1.67849E-06
-7.55322E-06
-7.55322E-06
-1.0071E-06
8.72816E-06
1.82956E-05
2.50095E-05
2.56809E-05
2.38346E-05
2.29953E-05
2.09812E-05
1.7792E-05
1.46029E-05
1.2253E-05
1.35958E-05
1.46029E-05
1.42672E-05
1.561E-05
1.82956E-05
2.06455E-05
2.18204E-05
1.93027E-05
1.46029E-05
1.09102E-05
7.55322E-06
5.20333E-06
2.51774E-06
1.34279E-06
2.51774E-06
2.85344E-06
-2.85344E-06
-1.35958E-05
-2.09812E-05
-2.19882E-05
-1.79599E-05
-1.15816E-05
-6.04257E-06
-6.71397E-07
4.86763E-06
8.56031E-06
1.35958E-05
1.99741E-05
2.60166E-05
3.32342E-05
3.77661E-05
3.81018E-05
3.52483E-05
3.15557E-05
3.02129E-05
3.20592E-05
3.54162E-05
3.91089E-05
4.448E-05
4.66621E-05
4.28016E-05
3.47448E-05
2.29953E-05
1.35958E-05
8.22461E-06
3.86053E-06
1.34279E-06
8.39246E-07
8.39246E-07
3.35698E-07
5.03548E-07
-1.0071E-06
-1.51064E-06
-1.34279E-06
-2.18204E-06
-5.03548E-07
2.51774E-06
4.36408E-06
5.53902E-06
4.86763E-06
3.52483E-06
5.20333E-06
9.06386E-06
1.05745E-05
9.23171E-06
4.53193E-06
2.18204E-06
2.51774E-06
2.01419E-06
1.17494E-06
1.17494E-06
2.85344E-06
4.86763E-06
5.87472E-06
6.37827E-06
8.39246E-06
1.19173E-05
1.561E-05
1.79599E-05
1.86313E-05
1.82956E-05
1.82956E-05
1.76242E-05
1.59457E-05
1.62814E-05
1.64492E-05
1.71206E-05
1.8967E-05
1.93027E-05
1.76242E-05
1.47707E-05
9.56741E-06
2.51774E-06
-1.51064E-06
-3.86053E-06
-4.36408E-06
-2.85344E-06
-1.51064E-06
-1.51064E-06
-8.39246E-07
2.34989E-06
6.37827E-06
1.05745E-05
1.4435E-05
1.79599E-05
1.91348E-05
1.82956E-05
1.99741E-05
2.16526E-05
2.28275E-05
2.50095E-05
2.60166E-05
2.56809E-05
2.40024E-05
2.3331E-05
2.58488E-05
2.71916E-05
2.34989E-05
1.72885E-05
9.90311E-06
3.35698E-07
-7.04967E-06
-1.2253E-05
-1.52743E-05
-1.2253E-05
-4.19623E-06
7.38537E-06
2.09812E-05
3.57519E-05
4.7837E-05
5.35439E-05
5.15297E-05
4.64942E-05
4.26337E-05
3.72625E-05
3.03807E-05
2.38346E-05
1.79599E-05
1.29244E-05
9.39956E-06
3.69268E-06
-2.51774E-06
-6.21042E-06
-8.89601E-06
-1.02388E-05
-6.54612E-06
-8.39246E-07
1.84634E-06
1.67849E-07
-7.38537E-06
-1.54421E-05
-1.8967E-05
-1.66171E-05
-1.2253E-05
-7.38537E-06
-3.69268E-06
8.39246E-07
4.69978E-06
7.88891E-06
1.32601E-05
1.99741E-05
2.36667E-05
2.46738E-05
2.24918E-05
1.96384E-05
1.86313E-05
1.72885E-05
1.49386E-05
1.4435E-05
1.39315E-05
1.46029E-05
1.76242E-05
1.93027E-05
1.93027E-05
1.52743E-05
4.19623E-06
-7.21752E-06
-1.4435E-05
-1.93027E-05
-2.43381E-05
-2.76951E-05
-2.70237E-05
-2.23239E-05
-1.59457E-05
-9.56741E-06
2.18204E-06
1.93027E-05
3.37377E-05
4.28016E-05
5.05226E-05
5.62295E-05
5.69009E-05
5.18654E-05
4.38086E-05
3.44091E-05
2.51774E-05
1.96384E-05
1.79599E-05
1.561E-05
1.32601E-05
1.19173E-05
5.87472E-06
-2.18204E-06
-6.88182E-06
-4.36408E-06
-2.51774E-06
-2.18204E-06
-8.39246E-07
4.19623E-06
9.06386E-06
1.39315E-05
1.8967E-05
2.26596E-05
2.60166E-05
2.83665E-05
2.6688E-05
2.3331E-05
1.96384E-05
1.72885E-05
1.561E-05
1.39315E-05
8.89601E-06
4.53193E-06
3.86053E-06
5.20333E-06
3.86053E-06
0
-7.88891E-06
-1.15816E-05
-7.21752E-06
-3.18914E-06
-1.51064E-06
1.17494E-06
3.18914E-06
5.53902E-06
6.54612E-06
7.21752E-06
1.09102E-05
1.59457E-05
2.21561E-05
2.56809E-05
2.6688E-05
2.87022E-05
3.20592E-05
3.07164E-05
2.60166E-05
2.46738E-05
2.61845E-05
3.0045E-05
3.25628E-05
3.07164E-05
2.21561E-05
8.56031E-06
-3.35698E-06
-1.09102E-05
-1.4435E-05
-1.59457E-05
-1.71206E-05
-1.86313E-05
-1.8967E-05
-1.49386E-05
-6.54612E-06
4.53193E-06
1.76242E-05
3.03807E-05
4.07874E-05
4.61585E-05
4.38086E-05
3.81018E-05
3.32342E-05
2.90379E-05
2.38346E-05
1.66171E-05
1.02388E-05
7.88891E-06
8.22461E-06
4.53193E-06
1.17494E-06
6.71397E-07
-1.67849E-07
8.39246E-07
4.53193E-06
9.73526E-06
1.0071E-05
5.20333E-06
1.84634E-06
2.85344E-06
5.37118E-06
6.37827E-06
3.86053E-06
1.17494E-06
1.84634E-06
4.53193E-06
3.86053E-06
3.86053E-06
4.02838E-06
2.51774E-06
1.17494E-06
3.86053E-06
7.38537E-06
1.12459E-05
1.86313E-05
2.56809E-05
3.0045E-05
3.17235E-05
2.80308E-05
2.21561E-05
1.82956E-05
1.39315E-05
6.54612E-06
-5.03548E-07
-3.69268E-06
-1.67849E-06
1.17494E-06
-8.39246E-07
-3.52483E-06
-2.34989E-06
-8.39246E-07
-8.39246E-07
-1.51064E-06
-6.71397E-07
6.04257E-06
1.84634E-05
3.13878E-05
4.28016E-05
4.98512E-05
4.7837E-05
4.12909E-05
3.40734E-05
2.53452E-05
1.20851E-05
-5.87472E-06
-1.82956E-05
-2.31632E-05
-2.73594E-05
-2.98772E-05
-2.58488E-05
-1.74563E-05
-7.72107E-06
5.03548E-07
8.22461E-06
1.69528E-05
2.46738E-05
3.44091E-05
4.48157E-05
5.27047E-05
5.69009E-05
5.7908E-05
5.40475E-05
4.88441E-05
4.21302E-05
3.27306E-05
2.76951E-05
2.43381E-05
1.72885E-05
1.02388E-05
4.53193E-06
-4.69978E-06
-1.46029E-05
-2.1149E-05
-2.50095E-05
-2.50095E-05
-2.18204E-05
-1.67849E-05
-1.02388E-05
-2.51774E-06
1.04067E-05
2.46738E-05
3.20592E-05
3.05486E-05
2.36667E-05
1.64492E-05
1.25887E-05
1.04067E-05
9.90311E-06
9.90311E-06
1.05745E-05
1.27565E-05
1.561E-05
1.84634E-05
1.82956E-05
1.71206E-05
1.79599E-05
1.86313E-05
1.82956E-05
1.69528E-05
1.24208E-05
6.71397E-06
3.02129E-06
3.35698E-07
2.85344E-06
9.90311E-06
1.46029E-05
1.99741E-05
2.70237E-05
3.20592E-05
2.97093E-05
1.93027E-05
9.73526E-06
4.86763E-06
3.18914E-06
8.39246E-07
-1.84634E-06
-1.67849E-06
2.34989E-06
7.04967E-06
7.88891E-06
7.88891E-06
7.72107E-06
6.04257E-06
5.20333E-06
6.88182E-06
9.90311E-06
1.05745E-05
9.90311E-06
1.12459E-05
1.32601E-05
1.42672E-05
1.59457E-05
1.86313E-05
1.79599E-05
1.561E-05
1.19173E-05
6.37827E-06
1.51064E-06
3.35698E-06
5.03548E-06
3.18914E-06
8.39246E-07
-1.84634E-06
-5.70687E-06
-9.23171E-06
-1.20851E-05
-1.1078E-05
-5.20333E-06
-2.18204E-06
-3.35698E-07
5.53902E-06
1.17494E-05
1.52743E-05
2.01419E-05
2.56809E-05
3.0045E-05
3.42412E-05
3.70947E-05
3.86053E-05
3.70947E-05
3.60876E-05
3.64233E-05
3.54162E-05
3.25628E-05
3.07164E-05
2.88701E-05
2.43381E-05
1.84634E-05
1.25887E-05
8.72816E-06
8.39246E-06
5.53902E-06
1.17494E-06
-2.51774E-06
-5.87472E-06
-9.90311E-06
-1.25887E-05
-1.37636E-05
-1.54421E-05
-1.39315E-05
-1.25887E-05
-1.39315E-05
-1.62814E-05
-1.47707E-05
-9.56741E-06
-2.85344E-06
4.86763E-06
1.15816E-05
1.29244E-05
1.05745E-05
9.39956E-06
8.89601E-06
1.15816E-05
1.99741E-05
3.05486E-05
4.21302E-05
5.20333E-05
5.69009E-05
5.62295E-05
4.91798E-05
3.79339E-05
2.73594E-05
2.01419E-05
1.561E-05
1.19173E-05
8.89601E-06
7.04967E-06
5.20333E-06
3.18914E-06
2.34989E-06
4.36408E-06
5.87472E-06
5.53902E-06
4.36408E-06
3.35698E-07
-2.85344E-06
-6.88182E-06
-1.09102E-05
-1.15816E-05
-9.90311E-06
-1.24208E-05
-1.71206E-05
-1.76242E-05
-1.62814E-05
-1.72885E-05
-1.86313E-05
-1.82956E-05
-1.37636E-05
-4.53193E-06
9.23171E-06
2.50095E-05
3.70947E-05
4.11231E-05
4.14588E-05
4.07874E-05
3.8941E-05
3.97803E-05
4.28016E-05
4.448E-05
4.33051E-05
3.97803E-05
3.44091E-05
2.90379E-05
2.43381E-05
2.21561E-05
2.13169E-05
2.03098E-05
1.86313E-05
1.79599E-05
1.99741E-05
2.13169E-05
1.91348E-05
1.29244E-05
6.21042E-06
4.19623E-06
6.54612E-06
9.90311E-06
1.19173E-05
1.05745E-05
5.87472E-06
-4.19623E-06
-1.30922E-05
-1.47707E-05
-1.15816E-05
-7.88891E-06
-5.87472E-06
-2.85344E-06
1.67849E-06
4.86763E-06
7.88891E-06
8.56031E-06
7.21752E-06
5.20333E-06
3.35698E-06
1.67849E-06
-1.84634E-06
-4.86763E-06
-3.69268E-06
-1.0071E-06
3.52483E-06
1.02388E-05
1.59457E-05
1.8967E-05
1.99741E-05
1.93027E-05
2.19882E-05
2.6688E-05
2.87022E-05
2.83665E-05
2.68559E-05
2.70237E-05
2.83665E-05
2.7863E-05
2.40024E-05
2.3331E-05
2.31632E-05
2.23239E-05
2.13169E-05
1.99741E-05
1.72885E-05
1.59457E-05
1.42672E-05
1.15816E-05
9.23171E-06
9.23171E-06
1.02388E-05
1.04067E-05
5.37118E-06
-1.84634E-06
-7.88891E-06
-9.23171E-06
-4.86763E-06
5.03548E-07
1.84634E-06
2.18204E-06
2.51774E-06
2.34989E-06
4.53193E-06
5.20333E-06
4.19623E-06
3.69268E-06
3.52483E-06
1.67849E-07
-2.85344E-06
-2.18204E-06
1.84634E-06
4.86763E-06
6.54612E-06
8.56031E-06
8.56031E-06
7.21752E-06
1.19173E-05
1.99741E-05
2.51774E-05
2.75273E-05
3.07164E-05
3.07164E-05
2.80308E-05
2.36667E-05
2.16526E-05
2.36667E-05
2.51774E-05
2.26596E-05
1.76242E-05
1.02388E-05
4.86763E-06
5.03548E-06
3.52483E-06
-3.86053E-06
-9.90311E-06
-1.37636E-05
-1.51064E-05
-1.49386E-05
-1.49386E-05
-1.561E-05
-1.64492E-05
-1.66171E-05
-1.39315E-05
-8.22461E-06
-3.35698E-07
1.05745E-05
2.28275E-05
3.10521E-05
3.15557E-05
2.36667E-05
1.69528E-05
2.24918E-05
3.3402E-05
4.24659E-05
4.76692E-05
4.81727E-05
4.38086E-05
3.74304E-05
2.98772E-05
2.56809E-05
2.60166E-05
2.87022E-05
3.07164E-05
3.17235E-05
3.20592E-05
2.76951E-05
1.94705E-05
1.05745E-05
5.70687E-06
2.85344E-06
-1.51064E-06
-1.0071E-05
-2.18204E-05
-3.10521E-05
-3.30663E-05
-3.15557E-05
-2.76951E-05
-1.84634E-05
-6.21042E-06
3.18914E-06
7.38537E-06
8.39246E-06
1.05745E-05
1.82956E-05
3.05486E-05
4.3473E-05
4.95155E-05
4.91798E-05
4.85084E-05
4.7837E-05
4.24659E-05
3.57519E-05
3.05486E-05
2.40024E-05
1.59457E-05
8.22461E-06
2.18204E-06
-3.02129E-06
-8.22461E-06
-1.32601E-05
-1.51064E-05
-1.39315E-05
-9.56741E-06
-3.69268E-06
0
-3.35698E-07
-3.18914E-06
-4.86763E-06
-2.34989E-06
3.35698E-06
8.72816E-06
1.12459E-05
1.30922E-05
1.52743E-05
1.42672E-05
1.30922E-05
1.52743E-05
1.82956E-05
2.09812E-05
2.3331E-05
2.60166E-05
2.87022E-05
2.90379E-05
2.61845E-05
2.3331E-05
2.13169E-05
2.09812E-05
1.76242E-05
1.42672E-05
1.32601E-05
1.12459E-05
7.88891E-06
5.03548E-06
3.18914E-06
3.02129E-06
2.51774E-06
1.84634E-06
1.17494E-06
3.02129E-06
4.02838E-06
4.86763E-06
6.54612E-06
7.88891E-06
5.03548E-06
5.03548E-07
-2.85344E-06
-2.85344E-06
1.67849E-06
6.71397E-06
8.89601E-06
7.88891E-06
3.18914E-06
-2.51774E-06
-7.38537E-06
-8.22461E-06
-4.19623E-06
-3.52483E-06
-9.73526E-06
-1.42672E-05
-1.52743E-05
-1.35958E-05
-7.72107E-06
-2.51774E-06
2.51774E-06
7.88891E-06
1.02388E-05
1.49386E-05
2.50095E-05
3.39055E-05
3.87732E-05
4.06195E-05
4.07874E-05
4.448E-05
4.98512E-05
5.65652E-05
6.31113E-05
6.74754E-05
6.69719E-05
5.92508E-05
4.54871E-05
3.20592E-05
2.36667E-05
1.67849E-05
1.17494E-05
7.21752E-06
1.67849E-07
-3.86053E-06
-3.18914E-06
-1.84634E-06
-4.02838E-06
-1.02388E-05
-1.51064E-05
-1.42672E-05
-7.21752E-06
-2.34989E-06
-1.84634E-06
3.35698E-07
3.69268E-06
6.54612E-06
7.38537E-06
5.20333E-06
1.84634E-06
-1.67849E-07
-1.0071E-06
-3.52483E-06
-7.04967E-06
-8.72816E-06
-6.88182E-06
-5.20333E-06
-4.86763E-06
-1.84634E-06
2.34989E-06
6.21042E-06
1.7792E-05
3.42412E-05
4.85084E-05
5.80758E-05
6.05936E-05
5.84115E-05
5.22011E-05
4.24659E-05
3.0045E-05
2.06455E-05
1.39315E-05
8.56031E-06
4.53193E-06
2.51774E-06
-8.39246E-07
-4.19623E-06
-3.02129E-06
2.18204E-06
2.85344E-06
5.03548E-07
3.02129E-06
5.87472E-06
4.69978E-06
6.71397E-07
-4.19623E-06
-7.04967E-06
-5.53902E-06
-4.86763E-06
-6.88182E-06
-9.90311E-06
-1.39315E-05
-1.4435E-05
-9.90311E-06
-2.01419E-06
5.20333E-06
1.05745E-05
1.25887E-05
1.62814E-05
2.38346E-05
3.03807E-05
3.37377E-05
3.45769E-05
3.37377E-05
3.17235E-05
2.85344E-05
2.3331E-05
1.91348E-05
1.54421E-05
1.2253E-05
1.02388E-05
5.87472E-06
1.51064E-06
6.71397E-07
1.17494E-06
3.52483E-06
5.87472E-06
4.86763E-06
3.35698E-06
4.53193E-06
5.20333E-06
4.53193E-06
7.88891E-06
1.46029E-05
1.93027E-05
2.13169E-05
2.13169E-05
2.06455E-05
1.99741E-05
1.82956E-05
1.8967E-05
2.26596E-05
2.80308E-05
3.17235E-05
3.17235E-05
2.93736E-05
2.73594E-05
2.3331E-05
1.72885E-05
1.2253E-05
6.54612E-06
3.86053E-06
1.84634E-06
-1.67849E-06
-5.53902E-06
-5.70687E-06
-5.03548E-07
6.37827E-06
7.21752E-06
1.51064E-06
-5.53902E-06
-1.05745E-05
-1.2253E-05
-1.2253E-05
-1.02388E-05
-8.89601E-06
-7.21752E-06
-4.19623E-06
-8.39246E-07
4.36408E-06
1.09102E-05
1.93027E-05
2.80308E-05
3.47448E-05
3.74304E-05
3.64233E-05
3.10521E-05
2.26596E-05
1.561E-05
1.09102E-05
8.89601E-06
9.56741E-06
1.46029E-05
2.08133E-05
2.43381E-05
2.46738E-05
2.56809E-05
2.73594E-05
2.85344E-05
2.7863E-05
2.36667E-05
1.72885E-05
1.32601E-05
1.0071E-05
5.20333E-06
2.85344E-06
1.51064E-06
-5.03548E-07
-3.52483E-06
-8.22461E-06
-1.14137E-05
-1.12459E-05
-1.19173E-05
-1.25887E-05
-1.04067E-05
-4.19623E-06
6.88182E-06
1.99741E-05
3.05486E-05
3.47448E-05
3.37377E-05
2.92058E-05
2.65202E-05
2.58488E-05
2.71916E-05
2.80308E-05
2.50095E-05
1.99741E-05
1.82956E-05
1.66171E-05
1.19173E-05
7.72107E-06
3.52483E-06
1.67849E-07
-5.03548E-07
-1.84634E-06
-2.18204E-06
3.35698E-07
3.18914E-06
2.51774E-06
-1.17494E-06
-5.87472E-06
-6.21042E-06
-1.51064E-06
5.03548E-07
-1.17494E-06
-1.51064E-06
-8.39246E-07
1.84634E-06
8.89601E-06
1.25887E-05
1.04067E-05
8.22461E-06
6.04257E-06
4.86763E-06
4.69978E-06
5.20333E-06
7.04967E-06
8.39246E-06
1.15816E-05
1.49386E-05
1.57778E-05
1.76242E-05
2.28275E-05
2.73594E-05
3.20592E-05
3.54162E-05
3.3402E-05
2.90379E-05
2.61845E-05
2.3331E-05
2.26596E-05
2.21561E-05
1.96384E-05
1.42672E-05
6.37827E-06
-2.18204E-06
-8.89601E-06
-1.42672E-05
-1.93027E-05
-2.03098E-05
-2.09812E-05
-2.43381E-05
-2.65202E-05
-2.43381E-05
-2.21561E-05
-1.99741E-05
-1.12459E-05
4.86763E-06
2.60166E-05
4.71656E-05
6.59648E-05
7.95605E-05
8.56031E-05
8.50996E-05
8.09033E-05
7.36858E-05
6.63005E-05
5.62295E-05
4.28016E-05
2.98772E-05
1.66171E-05
6.21042E-06
6.71397E-07
-2.34989E-06
-5.53902E-06
-5.53902E-06
-6.88182E-06
-1.15816E-05
-1.30922E-05
-1.14137E-05
-9.06386E-06
-7.72107E-06
-8.56031E-06
-7.21752E-06
-2.18204E-06
2.18204E-06
2.51774E-06
3.69268E-06
3.69268E-06
5.20333E-06
7.55322E-06
5.53902E-06
2.85344E-06
2.51774E-06
5.03548E-07
-1.0071E-06
-1.51064E-06
-1.84634E-06
-3.18914E-06
-3.52483E-06
-3.35698E-06
-3.18914E-06
-3.02129E-06
-2.85344E-06
8.39246E-07
3.18914E-06
3.02129E-06
5.87472E-06
8.56031E-06
9.90311E-06
1.02388E-05
1.12459E-05
1.32601E-05
1.8967E-05
2.76951E-05
3.64233E-05
3.92767E-05
3.28985E-05
2.16526E-05
9.56741E-06
-3.86053E-06
-1.17494E-05
-9.90311E-06
-3.35698E-07
8.22461E-06
1.30922E-05
1.7792E-05
2.29953E-05
2.6688E-05
2.53452E-05
2.19882E-05
2.13169E-05
2.31632E-05
2.46738E-05
2.6688E-05
3.18914E-05
3.87732E-05
4.09552E-05
3.57519E-05
2.92058E-05
2.36667E-05
2.04776E-05
1.561E-05
8.22461E-06
2.85344E-06
5.03548E-07
-3.18914E-06
-6.54612E-06
-4.69978E-06
-2.51774E-06
-1.17494E-06
-3.52483E-06
-6.54612E-06
-7.38537E-06
-7.88891E-06
-6.21042E-06
-2.34989E-06
2.18204E-06
5.87472E-06
9.56741E-06
1.04067E-05
8.56031E-06
9.90311E-06
1.14137E-05
1.24208E-05
1.39315E-05
1.39315E-05
1.39315E-05
1.59457E-05
1.79599E-05
1.7792E-05
1.98062E-05
2.48417E-05
3.07164E-05
3.47448E-05
3.54162E-05
3.13878E-05
2.55131E-05
2.04776E-05
1.561E-05
1.14137E-05
9.06386E-06
8.22461E-06
7.88891E-06
7.88891E-06
7.21752E-06
4.19623E-06
1.67849E-06
2.01419E-06
4.86763E-06
7.55322E-06
7.88891E-06
6.37827E-06
7.21752E-06
1.04067E-05
1.14137E-05
1.09102E-05
8.56031E-06
5.20333E-06
4.53193E-06
7.72107E-06
1.09102E-05
1.05745E-05
7.88891E-06
4.53193E-06
2.85344E-06
1.17494E-06
-6.71397E-07
1.51064E-06
9.23171E-06
1.99741E-05
2.7863E-05
2.92058E-05
2.61845E-05
2.13169E-05
1.62814E-05
1.19173E-05
6.71397E-06
-1.67849E-07
-6.37827E-06
-8.56031E-06
-6.88182E-06
-4.19623E-06
-1.0071E-06
6.21042E-06
1.69528E-05
3.03807E-05
4.28016E-05
5.48867E-05
6.39506E-05
6.27756E-05
5.50546E-05
4.54871E-05
3.50805E-05
2.48417E-05
1.62814E-05
1.09102E-05
8.39246E-06
4.19623E-06
-2.85344E-06
-8.22461E-06
-1.46029E-05
-2.31632E-05
-2.63523E-05
-2.43381E-05
-2.04776E-05
-1.42672E-05
-8.89601E-06
-8.89601E-06
-9.56741E-06
-1.1078E-05
-1.02388E-05
-6.88182E-06
-5.20333E-06
-2.85344E-06
2.18204E-06
7.72107E-06
1.39315E-05
2.04776E-05
2.65202E-05
3.07164E-05
2.92058E-05
2.3331E-05
1.79599E-05
1.59457E-05
1.37636E-05
1.12459E-05
9.56741E-06
9.23171E-06
1.12459E-05
1.71206E-05
2.83665E-05
3.97803E-05
4.36408E-05
3.60876E-05
2.38346E-05
1.42672E-05
9.39956E-06
8.56031E-06
9.56741E-06
1.05745E-05
1.39315E-05
1.74563E-05
1.71206E-05
1.37636E-05
1.25887E-05
1.20851E-05
9.90311E-06
9.23171E-06
1.17494E-05
1.25887E-05
1.40993E-05
1.71206E-05
1.7792E-05
1.59457E-05
1.25887E-05
7.55322E-06
2.51774E-06
-1.84634E-06
-5.53902E-06
-5.53902E-06
-3.86053E-06
-6.37827E-06
-8.39246E-06
-5.53902E-06
-8.39246E-07
2.01419E-06
1.0071E-06
-3.86053E-06
-3.52483E-06
1.67849E-06
6.88182E-06
1.24208E-05
1.86313E-05
2.18204E-05
2.04776E-05
1.82956E-05
1.84634E-05
1.99741E-05
1.86313E-05
1.42672E-05
7.88891E-06
3.18914E-06
3.52483E-06
6.04257E-06
9.06386E-06
1.05745E-05
1.05745E-05
1.25887E-05
1.76242E-05
2.19882E-05
2.09812E-05
1.52743E-05
9.90311E-06
8.39246E-06
1.05745E-05
9.56741E-06
5.53902E-06
3.18914E-06
1.84634E-06
5.03548E-07
-1.17494E-06
-4.36408E-06
-4.53193E-06
1.17494E-06
1.05745E-05
2.09812E-05
3.18914E-05
4.24659E-05
4.93477E-05
5.15297E-05
4.85084E-05
4.07874E-05
3.25628E-05
2.46738E-05
1.86313E-05
1.35958E-05
9.56741E-06
8.56031E-06
1.12459E-05
1.17494E-05
8.89601E-06
4.02838E-06
-1.67849E-07
-1.17494E-06
8.39246E-07
7.88891E-06
1.42672E-05
1.42672E-05
1.32601E-05
1.30922E-05
1.05745E-05
7.88891E-06
8.22461E-06
7.88891E-06
6.88182E-06
6.54612E-06
5.03548E-06
3.52483E-06
1.67849E-06
0
1.17494E-06
4.53193E-06
7.21752E-06
6.54612E-06
6.88182E-06
8.56031E-06
1.09102E-05
1.0071E-05
6.88182E-06
3.35698E-06
3.86053E-06
5.20333E-06
5.20333E-06
2.85344E-06
-1.67849E-07
2.51774E-06
6.88182E-06
8.89601E-06
1.19173E-05
1.561E-05
1.59457E-05
1.49386E-05
1.34279E-05
1.25887E-05
1.05745E-05
6.21042E-06
2.51774E-06
-8.39246E-07
-2.85344E-06
-1.51064E-06
3.18914E-06
8.56031E-06
1.42672E-05
1.93027E-05
2.4506E-05
3.30663E-05
4.04517E-05
4.3473E-05
3.99481E-05
3.17235E-05
2.26596E-05
1.76242E-05
1.66171E-05
1.67849E-05
1.49386E-05
7.88891E-06
-1.67849E-06
-7.55322E-06
-1.09102E-05
-1.49386E-05
-1.8967E-05
-1.94705E-05
-1.66171E-05
-1.49386E-05
-1.52743E-05
-1.49386E-05
-8.22461E-06
1.84634E-06
1.29244E-05
2.60166E-05
4.0116E-05
4.98512E-05
5.25368E-05
4.80049E-05
3.87732E-05
3.27306E-05
3.03807E-05
2.87022E-05
2.65202E-05
2.21561E-05
1.59457E-05
6.71397E-06
-2.18204E-06
-7.21752E-06
-9.23171E-06
-5.70687E-06
-2.85344E-06
-3.86053E-06
-8.39246E-07
7.55322E-06
1.40993E-05
1.62814E-05
1.57778E-05
1.30922E-05
1.25887E-05
1.4435E-05
1.64492E-05
1.86313E-05
2.13169E-05
2.13169E-05
1.59457E-05
1.05745E-05
8.89601E-06
9.23171E-06
1.0071E-05
1.05745E-05
1.32601E-05
1.62814E-05
2.24918E-05
3.20592E-05
3.65911E-05
3.37377E-05
2.7863E-05
2.03098E-05
1.59457E-05
1.62814E-05
1.46029E-05
1.02388E-05
4.86763E-06
3.35698E-07
1.84634E-06
2.85344E-06
1.67849E-07
-8.39246E-07
-5.03548E-07
-5.03548E-07
-3.35698E-07
-3.35698E-07
-3.35698E-07
1.17494E-06
3.18914E-06
4.19623E-06
6.37827E-06
9.23171E-06
1.25887E-05
1.69528E-05
1.76242E-05
1.25887E-05
7.88891E-06
5.53902E-06
4.53193E-06
6.21042E-06
6.71397E-06
5.20333E-06
3.69268E-06
2.85344E-06
-8.39246E-07
-7.21752E-06
-1.09102E-05
-6.88182E-06
1.17494E-06
7.21752E-06
1.19173E-05
1.52743E-05
2.03098E-05
2.56809E-05
2.93736E-05
3.07164E-05
3.122E-05
3.20592E-05
3.37377E-05
3.20592E-05
2.6688E-05
2.13169E-05
1.91348E-05
1.66171E-05
1.32601E-05
1.14137E-05
1.32601E-05
1.39315E-05
1.2253E-05
9.23171E-06
7.88891E-06
6.88182E-06
5.03548E-06
3.18914E-06
3.86053E-06
6.04257E-06
8.22461E-06
9.56741E-06
1.05745E-05
1.29244E-05
1.35958E-05
1.12459E-05
8.56031E-06
6.54612E-06
4.53193E-06
4.53193E-06
4.53193E-06
2.51774E-06
3.35698E-07
5.03548E-07
2.51774E-06
7.04967E-06
1.05745E-05
1.20851E-05
1.27565E-05
1.39315E-05
1.59457E-05
1.66171E-05
1.62814E-05
1.59457E-05
1.35958E-05
1.12459E-05
1.2253E-05
1.32601E-05
1.15816E-05
7.88891E-06
3.69268E-06
-1.17494E-06
-6.37827E-06
-1.17494E-05
-1.561E-05
-1.25887E-05
-9.90311E-06
-7.21752E-06
-4.36408E-06
-3.52483E-06
5.03548E-07
1.05745E-05
2.26596E-05
3.40734E-05
4.63264E-05
5.74044E-05
6.22721E-05
6.1265E-05
5.62295E-05
4.75013E-05
3.57519E-05
2.60166E-05
1.93027E-05
8.89601E-06
-4.19623E-06
-1.17494E-05
-1.561E-05
-1.74563E-05
-1.05745E-05
3.69268E-06
2.21561E-05
3.77661E-05
4.41443E-05
4.06195E-05
3.18914E-05
2.13169E-05
1.12459E-05
6.04257E-06
1.51064E-06
-4.19623E-06
-4.02838E-06
3.18914E-06
9.39956E-06
8.56031E-06
4.86763E-06
5.87472E-06
9.23171E-06
1.09102E-05
8.89601E-06
5.20333E-06
8.39246E-07
-2.85344E-06
-2.68559E-06
-1.67849E-06
-3.52483E-06
-7.55322E-06
-7.72107E-06
-6.21042E-06
-6.21042E-06
-8.22461E-06
-9.23171E-06
-7.55322E-06
-4.36408E-06
1.17494E-06
8.89601E-06
1.57778E-05
2.13169E-05
2.63523E-05
2.93736E-05
2.6688E-05
2.23239E-05
2.06455E-05
1.84634E-05
1.49386E-05
1.19173E-05
8.89601E-06
4.86763E-06
2.85344E-06
2.51774E-06
2.85344E-06
3.18914E-06
3.86053E-06
5.87472E-06
8.22461E-06
1.02388E-05
1.0071E-05
7.72107E-06
7.88891E-06
1.37636E-05
2.13169E-05
2.40024E-05
2.36667E-05
2.24918E-05
2.03098E-05
1.59457E-05
1.15816E-05
7.88891E-06
7.88891E-06
3.86053E-06
-6.21042E-06
-1.32601E-05
-1.42672E-05
-1.15816E-05
-4.86763E-06
3.69268E-06
1.1078E-05
1.54421E-05
1.71206E-05
1.76242E-05
1.94705E-05
2.19882E-05
2.36667E-05
2.40024E-05
2.53452E-05
2.90379E-05
3.20592E-05
3.23949E-05
3.30663E-05
3.54162E-05
3.59197E-05
3.57519E-05
3.50805E-05
3.27306E-05
2.83665E-05
2.40024E-05
1.64492E-05
9.06386E-06
5.87472E-06
3.52483E-06
2.85344E-06
2.34989E-06
2.51774E-06
1.17494E-06
-1.67849E-07
-5.03548E-07
1.67849E-06
2.51774E-06
1.67849E-07
-1.34279E-06
8.39246E-07
6.21042E-06
1.05745E-05
1.2253E-05
1.47707E-05
2.26596E-05
2.93736E-05
3.07164E-05
2.87022E-05
2.73594E-05
2.60166E-05
2.23239E-05
1.561E-05
8.56031E-06
3.86053E-06
1.17494E-06
-2.18204E-06
-7.21752E-06
-1.25887E-05
-1.561E-05
-1.81277E-05
-1.99741E-05
-1.79599E-05
-1.20851E-05
-8.39246E-06
-7.55322E-06
-4.36408E-06
2.51774E-06
1.32601E-05
2.46738E-05
3.25628E-05
3.74304E-05
3.72625E-05
3.70947E-05
3.47448E-05
2.73594E-05
2.13169E-05
2.09812E-05
2.13169E-05
2.13169E-05
2.03098E-05
1.7792E-05
1.71206E-05
1.52743E-05
1.35958E-05
1.59457E-05
1.69528E-05
1.4435E-05
1.12459E-05
9.06386E-06
7.88891E-06
8.56031E-06
9.56741E-06
1.02388E-05
9.56741E-06
8.22461E-06
7.21752E-06
7.21752E-06
6.54612E-06
1.17494E-06
-3.86053E-06
-2.18204E-06
8.39246E-07
1.17494E-06
0
-1.84634E-06
-4.53193E-06
-6.54612E-06
-3.18914E-06
8.39246E-07
1.84634E-06
1.67849E-07
8.39246E-07
9.90311E-06
2.13169E-05
2.80308E-05
3.13878E-05
3.122E-05
2.76951E-05
2.46738E-05
2.4506E-05
2.40024E-05
2.46738E-05
2.46738E-05
1.82956E-05
8.72816E-06
-3.35698E-07
-6.71397E-06
-9.23171E-06
-8.56031E-06
-6.21042E-06
-1.67849E-07
5.53902E-06
9.06386E-06
1.25887E-05
1.69528E-05
2.23239E-05
2.4506E-05
2.19882E-05
1.79599E-05
1.561E-05
1.46029E-05
1.561E-05
1.81277E-05
1.49386E-05
1.04067E-05
6.21042E-06
1.67849E-07
-5.03548E-06
-6.54612E-06
-3.52483E-06
2.51774E-06
1.19173E-05
2.60166E-05
3.97803E-05
4.54871E-05
4.28016E-05
3.44091E-05
2.46738E-05
1.59457E-05
7.55322E-06
-6.71397E-07
-4.19623E-06
-4.86763E-06
-5.87472E-06
-8.39246E-06
-6.54612E-06
1.0071E-06
1.12459E-05
1.81277E-05
1.86313E-05
1.52743E-05
1.37636E-05
1.32601E-05
1.2253E-05
1.2253E-05
1.42672E-05
1.64492E-05
1.46029E-05
1.12459E-05
1.25887E-05
1.4435E-05
1.42672E-05
1.40993E-05
1.34279E-05
1.19173E-05
1.19173E-05
1.19173E-05
1.1078E-05
9.23171E-06
6.21042E-06
3.18914E-06
2.01419E-06
3.35698E-07
-5.03548E-07
1.84634E-06
2.34989E-06
1.17494E-06
5.03548E-07
-8.39246E-07
-2.18204E-06
-5.03548E-06
-1.19173E-05
-1.69528E-05
-2.13169E-05
-2.48417E-05
-2.43381E-05
-1.98062E-05
-1.19173E-05
-2.18204E-06
9.23171E-06
2.34989E-05
3.6759E-05
4.448E-05
4.80049E-05
4.9012E-05
4.51514E-05
4.21302E-05
4.41443E-05
4.58228E-05
4.54871E-05
4.04517E-05
3.18914E-05
2.4506E-05
2.19882E-05
2.13169E-05
2.13169E-05
2.08133E-05
1.93027E-05
1.91348E-05
1.76242E-05
1.46029E-05
1.37636E-05
1.19173E-05
1.1078E-05
1.2253E-05
1.02388E-05
4.86763E-06
3.18914E-06
4.53193E-06
4.86763E-06
1.17494E-06
-5.87472E-06
-1.1078E-05
-9.23171E-06
-5.03548E-06
-2.85344E-06
-3.02129E-06
-4.19623E-06
-4.36408E-06
-2.85344E-06
-2.34989E-06
-2.85344E-06
-8.39246E-07
4.86763E-06
1.25887E-05
1.96384E-05
2.36667E-05
2.61845E-05
2.98772E-05
3.32342E-05
3.20592E-05
2.6688E-05
2.06455E-05
1.59457E-05
8.72816E-06
1.84634E-06
-1.17494E-06
-2.01419E-06
1.0071E-06
6.54612E-06
9.56741E-06
1.40993E-05
2.18204E-05
3.17235E-05
4.09552E-05
4.61585E-05
4.61585E-05
4.14588E-05
3.47448E-05
2.7863E-05
2.03098E-05
1.29244E-05
7.55322E-06
8.22461E-06
9.90311E-06
8.72816E-06
6.37827E-06
1.51064E-06
-4.86763E-06
-9.39956E-06
-1.09102E-05
-1.15816E-05
-1.19173E-05
-1.19173E-05
-9.56741E-06
-8.39246E-06
-1.2253E-05
-1.52743E-05
-1.30922E-05
-8.39246E-06
-1.84634E-06
5.03548E-06
8.89601E-06
1.02388E-05
1.30922E-05
1.76242E-05
2.21561E-05
2.58488E-05
2.73594E-05
3.03807E-05
3.27306E-05
3.122E-05
2.81987E-05
2.61845E-05
2.50095E-05
2.36667E-05
2.13169E-05
1.72885E-05
1.25887E-05
7.72107E-06
4.36408E-06
3.35698E-07
-5.53902E-06
-1.02388E-05
-1.32601E-05
-1.49386E-05
-1.42672E-05
-1.35958E-05
-1.49386E-05
-1.62814E-05
-1.67849E-05
-1.76242E-05
-1.62814E-05
-1.09102E-05
-1.67849E-07
1.57778E-05
3.07164E-05
4.21302E-05
4.88441E-05
5.08583E-05
5.42153E-05
5.95865E-05
5.92508E-05
5.35439E-05
4.73335E-05
3.81018E-05
2.50095E-05
1.39315E-05
7.04967E-06
4.69978E-06
4.69978E-06
1.51064E-06
-3.02129E-06
-3.69268E-06
-1.67849E-06
-1.84634E-06
-4.53193E-06
-7.88891E-06
-1.02388E-05
-1.49386E-05
-1.99741E-05
-1.8967E-05
-1.47707E-05
-1.14137E-05
-1.17494E-05
-1.39315E-05
-1.46029E-05
-1.17494E-05
-8.22461E-06
-1.67849E-06
8.22461E-06
2.13169E-05
3.74304E-05
5.22011E-05
6.009E-05
6.009E-05
5.89151E-05
5.82437E-05
5.95865E-05
6.19364E-05
6.05936E-05
5.40475E-05
4.81727E-05
4.448E-05
3.86053E-05
2.81987E-05
1.84634E-05
1.52743E-05
1.59457E-05
1.29244E-05
8.89601E-06
3.69268E-06
-3.18914E-06
-9.39956E-06
-1.19173E-05
-1.19173E-05
-1.02388E-05
-8.89601E-06
-8.56031E-06
-6.88182E-06
-4.86763E-06
-3.86053E-06
-4.19623E-06
-5.53902E-06
-4.86763E-06
-1.51064E-06
2.51774E-06
3.02129E-06
5.03548E-07
-2.18204E-06
-2.18204E-06
-2.85344E-06
-6.88182E-06
-9.90311E-06
-8.56031E-06
-4.53193E-06
0
3.35698E-06
3.86053E-06
5.20333E-06
1.05745E-05
1.86313E-05
2.53452E-05
2.43381E-05
2.09812E-05
2.1149E-05
2.3331E-05
2.48417E-05
2.31632E-05
1.86313E-05
1.66171E-05
1.66171E-05
1.4435E-05
1.05745E-05
7.04967E-06
4.86763E-06
6.37827E-06
7.88891E-06
9.23171E-06
1.1078E-05
1.42672E-05
1.71206E-05
1.76242E-05
1.32601E-05
1.0071E-05
1.19173E-05
1.2253E-05
1.02388E-05
7.88891E-06
5.20333E-06
3.86053E-06
5.70687E-06
6.88182E-06
5.03548E-06
1.34279E-06
-1.67849E-06
-2.18204E-06
-1.0071E-06
5.03548E-07
1.67849E-07
-1.51064E-06
-3.02129E-06
-2.85344E-06
-3.02129E-06
-3.35698E-06
-5.03548E-07
3.18914E-06
3.18914E-06
5.87472E-06
8.89601E-06
1.05745E-05
1.59457E-05
2.26596E-05
2.6688E-05
2.93736E-05
3.50805E-05
4.3473E-05
4.59907E-05
3.81018E-05
2.63523E-05
1.8967E-05
1.46029E-05
1.12459E-05
7.88891E-06
5.53902E-06
2.51774E-06
3.35698E-07
5.03548E-07
6.37827E-06
1.39315E-05
2.21561E-05
3.17235E-05
3.70947E-05
3.77661E-05
3.74304E-05
3.47448E-05
2.83665E-05
2.26596E-05
1.96384E-05
1.62814E-05
1.17494E-05
6.54612E-06
2.51774E-06
3.52483E-06
7.21752E-06
9.90311E-06
1.29244E-05
1.4435E-05
1.47707E-05
1.54421E-05
1.39315E-05
7.21752E-06
5.03548E-07
-4.19623E-06
-5.03548E-06
-5.53902E-06
-6.88182E-06
-6.37827E-06
-3.69268E-06
-1.17494E-06
3.02129E-06
6.88182E-06
8.72816E-06
1.17494E-05
1.39315E-05
1.74563E-05
2.4506E-05
2.93736E-05
3.23949E-05
3.40734E-05
3.10521E-05
2.48417E-05
1.98062E-05
1.72885E-05
1.79599E-05
1.71206E-05
1.39315E-05
1.19173E-05
8.56031E-06
1.67849E-07
-8.72816E-06
-1.81277E-05
-2.53452E-05
-2.70237E-05
-2.55131E-05
-2.28275E-05
-1.93027E-05
-1.62814E-05
-1.37636E-05
-8.22461E-06
2.85344E-06
1.561E-05
2.93736E-05
3.81018E-05
4.24659E-05
4.63264E-05
4.58228E-05
4.24659E-05
3.86053E-05
3.20592E-05
2.63523E-05
2.3331E-05
2.13169E-05
1.82956E-05
1.35958E-05
5.20333E-06
-2.18204E-06
-5.53902E-06
-5.20333E-06
-2.51774E-06
-1.67849E-07
-1.17494E-06
-3.86053E-06
-9.23171E-06
-1.40993E-05
-1.52743E-05
-1.2253E-05
-8.89601E-06
-5.53902E-06
-6.71397E-07
7.55322E-06
1.64492E-05
2.3331E-05
2.88701E-05
3.44091E-05
3.94446E-05
4.2298E-05
4.3473E-05
4.54871E-05
4.58228E-05
4.19623E-05
3.50805E-05
3.13878E-05
2.71916E-05
1.99741E-05
1.46029E-05
1.17494E-05
9.23171E-06
5.87472E-06
1.67849E-06
-1.51064E-06
-1.67849E-06
1.67849E-06
4.53193E-06
7.88891E-06
7.88891E-06
6.21042E-06
5.20333E-06
7.21752E-06
1.1078E-05
1.29244E-05
1.05745E-05
8.39246E-06
7.38537E-06
4.53193E-06
2.01419E-06
1.67849E-07
-2.85344E-06
-3.86053E-06
-3.52483E-06
-4.86763E-06
-4.69978E-06
-2.51774E-06
-1.0071E-06
-2.18204E-06
-6.04257E-06
-7.55322E-06
-2.18204E-06
5.87472E-06
1.35958E-05
1.93027E-05
2.13169E-05
2.09812E-05
2.03098E-05
2.26596E-05
2.40024E-05
2.36667E-05
2.19882E-05
2.29953E-05
2.65202E-05
2.71916E-05
2.23239E-05
1.46029E-05
7.21752E-06
3.18914E-06
4.19623E-06
6.54612E-06
7.21752E-06
7.88891E-06
1.25887E-05
1.93027E-05
2.38346E-05
2.53452E-05
2.6688E-05
2.70237E-05
2.26596E-05
1.52743E-05
7.04967E-06
3.86053E-06
5.87472E-06
8.89601E-06
9.90311E-06
9.23171E-06
7.21752E-06
6.54612E-06
5.87472E-06
1.51064E-06
-5.53902E-06
-7.21752E-06
-4.36408E-06
-1.51064E-06
-5.03548E-07
-2.01419E-06
-3.52483E-06
-3.52483E-06
-5.03548E-07
5.03548E-06
8.56031E-06
1.35958E-05
2.01419E-05
1.93027E-05
1.02388E-05
3.69268E-06
2.18204E-06
7.21752E-06
1.39315E-05
1.84634E-05
2.40024E-05
3.18914E-05
3.35698E-05
3.02129E-05
2.90379E-05
3.0045E-05
3.0045E-05
2.85344E-05
2.56809E-05
2.4506E-05
2.24918E-05
1.7792E-05
1.46029E-05
1.37636E-05
1.32601E-05
1.32601E-05
7.55322E-06
-1.51064E-06
-6.54612E-06
-7.88891E-06
-8.22461E-06
-8.89601E-06
-8.56031E-06
-5.53902E-06
-8.39246E-07
2.85344E-06
3.86053E-06
3.86053E-06
5.20333E-06
8.56031E-06
1.27565E-05
1.72885E-05
1.99741E-05
2.38346E-05
2.80308E-05
2.92058E-05
2.80308E-05
2.56809E-05
2.4506E-05
2.3331E-05
2.13169E-05
2.13169E-05
1.84634E-05
1.32601E-05
1.05745E-05
9.90311E-06
8.72816E-06
7.38537E-06
5.87472E-06
7.21752E-06
1.04067E-05
1.05745E-05
6.54612E-06
1.51064E-06
-2.01419E-06
-4.19623E-06
-7.72107E-06
-1.20851E-05
-1.561E-05
-1.8967E-05
-2.16526E-05
-2.24918E-05
-2.1149E-05
-1.64492E-05
-7.21752E-06
5.03548E-06
1.86313E-05
2.97093E-05
4.04517E-05
5.47189E-05
6.76432E-05
7.43572E-05
7.08324E-05
5.95865E-05
4.58228E-05
3.13878E-05
2.13169E-05
1.54421E-05
1.12459E-05
7.88891E-06
5.87472E-06
7.55322E-06
1.02388E-05
1.02388E-05
8.56031E-06
5.70687E-06
2.51774E-06
2.51774E-06
5.03548E-07
-3.86053E-06
-5.70687E-06
-7.88891E-06
-1.19173E-05
-1.15816E-05
-7.88891E-06
-3.52483E-06
1.51064E-06
5.53902E-06
7.88891E-06
8.22461E-06
8.22461E-06
1.05745E-05
1.46029E-05
1.81277E-05
1.93027E-05
1.79599E-05
1.46029E-05
1.35958E-05
1.561E-05
1.69528E-05
1.66171E-05
1.561E-05
1.19173E-05
1.09102E-05
1.02388E-05
9.23171E-06
9.23171E-06
9.06386E-06
6.54612E-06
4.02838E-06
1.84634E-06
2.85344E-06
7.88891E-06
1.25887E-05
1.05745E-05
5.03548E-06
-5.20333E-06
-1.49386E-05
-1.40993E-05
-3.52483E-06
1.05745E-05
2.60166E-05
3.47448E-05
3.65911E-05
3.54162E-05
3.15557E-05
2.53452E-05
1.93027E-05
1.30922E-05
7.88891E-06
4.86763E-06
5.70687E-06
1.19173E-05
1.86313E-05
2.60166E-05
3.30663E-05
3.94446E-05
4.21302E-05
3.94446E-05
3.3402E-05
2.83665E-05
2.40024E-05
1.82956E-05
1.15816E-05
7.88891E-06
7.04967E-06
7.21752E-06
5.20333E-06
-1.17494E-06
-7.88891E-06
-9.56741E-06
-6.88182E-06
-6.37827E-06
-7.38537E-06
-8.89601E-06
-7.72107E-06
-6.21042E-06
-6.54612E-06
-7.21752E-06
-7.55322E-06
-7.21752E-06
-6.71397E-06
-5.53902E-06
-4.19623E-06
-1.0071E-06
1.84634E-06
3.18914E-06
5.20333E-06
8.89601E-06
1.20851E-05
1.4435E-05
1.32601E-05
1.05745E-05
7.21752E-06
5.87472E-06
6.88182E-06
8.39246E-06
9.23171E-06
8.22461E-06
7.55322E-06
7.21752E-06
6.37827E-06
5.20333E-06
9.23171E-06
1.79599E-05
2.90379E-05
3.97803E-05
4.71656E-05
5.1194E-05
5.50546E-05
5.75723E-05
5.52224E-05
4.85084E-05
4.11231E-05
3.57519E-05
3.03807E-05
2.46738E-05
2.06455E-05
1.66171E-05
1.19173E-05
6.88182E-06
3.69268E-06
1.67849E-06
-3.35698E-07
-4.19623E-06
-7.04967E-06
-6.71397E-06
-3.52483E-06
-4.19623E-06
-5.87472E-06
-6.21042E-06
-4.86763E-06
-2.85344E-06
-8.39246E-07
0
3.52483E-06
7.88891E-06
6.54612E-06
1.17494E-06
-2.85344E-06
-3.18914E-06
1.67849E-07
3.86053E-06
4.86763E-06
7.38537E-06
1.04067E-05
1.34279E-05
1.52743E-05
1.52743E-05
1.30922E-05
9.56741E-06
8.39246E-06
1.17494E-05
1.62814E-05
1.69528E-05
1.59457E-05
1.49386E-05
1.32601E-05
1.24208E-05
1.24208E-05
1.05745E-05
8.89601E-06
9.90311E-06
1.24208E-05
1.32601E-05
1.30922E-05
1.19173E-05
1.19173E-05
1.4435E-05
1.76242E-05
2.09812E-05
2.13169E-05
1.82956E-05
1.66171E-05
1.72885E-05
1.69528E-05
1.32601E-05
1.05745E-05
9.90311E-06
1.27565E-05
1.40993E-05
1.27565E-05
1.32601E-05
1.49386E-05
1.47707E-05
1.30922E-05
9.90311E-06
9.56741E-06
1.32601E-05
1.52743E-05
1.37636E-05
1.2253E-05
7.21752E-06
2.34989E-06
2.01419E-06
3.86053E-06
4.86763E-06
4.19623E-06
2.51774E-06
3.86053E-06
9.06386E-06
1.20851E-05
1.15816E-05
1.2253E-05
1.24208E-05
9.06386E-06
3.86053E-06
2.85344E-06
7.38537E-06
1.17494E-05
1.42672E-05
1.7792E-05
2.06455E-05
2.13169E-05
2.13169E-05
2.19882E-05
2.23239E-05
2.06455E-05
1.69528E-05
1.59457E-05
1.62814E-05
1.66171E-05
1.72885E-05
1.52743E-05
1.04067E-05
8.56031E-06
9.90311E-06
9.90311E-06
9.90311E-06
1.02388E-05
5.87472E-06
6.71397E-07
-1.51064E-06
-3.52483E-06
-5.53902E-06
-4.86763E-06
-5.53902E-06
-6.88182E-06
-1.09102E-05
-1.15816E-05
-6.21042E-06
1.67849E-06
9.90311E-06
1.7792E-05
2.16526E-05
2.16526E-05
2.55131E-05
3.25628E-05
3.94446E-05
4.58228E-05
4.75013E-05
4.88441E-05
5.15297E-05
5.15297E-05
4.21302E-05
2.80308E-05
1.29244E-05
1.67849E-07
-1.12459E-05
-1.69528E-05
-1.46029E-05
-9.56741E-06
-7.55322E-06
-6.21042E-06
-4.86763E-06
3.35698E-07
7.88891E-06
1.25887E-05
1.29244E-05
1.04067E-05
5.37118E-06
2.51774E-06
4.19623E-06
7.55322E-06
1.05745E-05
1.35958E-05
1.46029E-05
1.42672E-05
1.561E-05
1.54421E-05
1.17494E-05
5.20333E-06
8.39246E-07
-3.35698E-07
-1.67849E-07
-1.67849E-07
-1.67849E-07
-1.0071E-06
-1.67849E-06
-1.67849E-07
4.53193E-06
8.89601E-06
1.17494E-05
1.49386E-05
1.99741E-05
2.23239E-05
2.18204E-05
2.34989E-05
2.28275E-05
1.8967E-05
1.7792E-05
1.8967E-05
1.96384E-05
2.13169E-05
2.26596E-05
2.13169E-05
1.96384E-05
1.86313E-05
1.79599E-05
1.79599E-05
1.99741E-05
2.23239E-05
2.19882E-05
1.99741E-05
1.79599E-05
1.42672E-05
9.06386E-06
5.20333E-06
6.21042E-06
4.36408E-06
-1.67849E-07
-3.18914E-06
-5.70687E-06
-8.39246E-06
-8.22461E-06
-6.21042E-06
-3.86053E-06
-1.67849E-06
5.03548E-07
4.86763E-06
1.02388E-05
1.32601E-05
1.37636E-05
1.37636E-05
1.15816E-05
1.05745E-05
1.05745E-05
1.0071E-05
1.14137E-05
1.32601E-05
1.34279E-05
1.34279E-05
1.42672E-05
1.49386E-05
1.19173E-05
7.38537E-06
3.69268E-06
2.34989E-06
5.03548E-07
-1.51064E-06
-3.35698E-07
1.17494E-06
4.19623E-06
7.21752E-06
7.21752E-06
6.21042E-06
1.29244E-05
2.63523E-05
3.91089E-05
4.91798E-05
5.08583E-05
4.68299E-05
4.0116E-05
3.20592E-05
2.65202E-05
2.19882E-05
1.59457E-05
6.88182E-06
-2.18204E-06
-5.37118E-06
-2.85344E-06
5.03548E-07
0
-2.85344E-06
-3.86053E-06
8.39246E-07
7.88891E-06
1.1078E-05
9.23171E-06
6.54612E-06
4.53193E-06
7.55322E-06
1.32601E-05
1.81277E-05
2.06455E-05
2.24918E-05
2.13169E-05
1.86313E-05
1.62814E-05
1.59457E-05
1.39315E-05
9.23171E-06
2.85344E-06
-1.67849E-06
-5.20333E-06
-5.87472E-06
-8.39246E-07
4.19623E-06
5.53902E-06
7.55322E-06
9.56741E-06
1.09102E-05
8.39246E-06
3.69268E-06
1.84634E-06
1.84634E-06
1.84634E-06
1.84634E-06
1.51064E-06
1.84634E-06
3.86053E-06
5.87472E-06
5.53902E-06
7.04967E-06
1.05745E-05
1.561E-05
1.91348E-05
2.18204E-05
2.53452E-05
2.93736E-05
3.07164E-05
2.80308E-05
2.6688E-05
2.58488E-05
2.29953E-05
1.82956E-05
1.17494E-05
9.23171E-06
9.90311E-06
8.39246E-06
7.04967E-06
8.39246E-06
8.22461E-06
6.54612E-06
3.52483E-06
0
-3.86053E-06
-6.21042E-06
-6.54612E-06
-6.54612E-06
-9.23171E-06
-1.15816E-05
-9.73526E-06
-6.54612E-06
-4.53193E-06
-1.0071E-06
2.51774E-06
7.21752E-06
1.39315E-05
1.96384E-05
2.43381E-05
3.15557E-05
3.84375E-05
4.53193E-05
5.2369E-05
5.62295E-05
5.48867E-05
4.95155E-05
4.2298E-05
3.47448E-05
2.51774E-05
1.49386E-05
8.22461E-06
4.36408E-06
1.0071E-06
-5.03548E-07
-1.0071E-06
-1.0071E-06
2.51774E-06
8.22461E-06
1.32601E-05
1.79599E-05
2.1149E-05
2.04776E-05
1.51064E-05
6.88182E-06
5.03548E-07
-3.52483E-06
-4.69978E-06
-1.84634E-06
3.52483E-06
7.88891E-06
7.88891E-06
6.88182E-06
5.70687E-06
1.84634E-06
-1.67849E-06
-1.84634E-06
5.03548E-07
3.52483E-06
2.18204E-06
-3.02129E-06
-1.0071E-05
-1.52743E-05
-1.79599E-05
-1.7792E-05
-8.89601E-06
8.56031E-06
2.80308E-05
4.54871E-05
5.85794E-05
6.29435E-05
6.19364E-05
5.6733E-05
4.61585E-05
3.3402E-05
2.43381E-05
2.03098E-05
1.79599E-05
1.37636E-05
6.37827E-06
2.18204E-06
8.39246E-07
-5.03548E-07
-1.84634E-06
-8.39246E-07
1.51064E-06
6.88182E-06
1.15816E-05
1.19173E-05
1.1078E-05
1.25887E-05
1.46029E-05
1.71206E-05
1.59457E-05
1.2253E-05
8.56031E-06
5.87472E-06
5.20333E-06
4.53193E-06
-1.67849E-07
-2.18204E-06
0
4.19623E-06
7.88891E-06
1.12459E-05
9.73526E-06
8.56031E-06
1.05745E-05
9.90311E-06
2.51774E-06
-3.52483E-06
-5.20333E-06
-3.02129E-06
-5.03548E-07
1.51064E-06
7.21752E-06
1.42672E-05
1.86313E-05
1.93027E-05
1.71206E-05
1.59457E-05
1.54421E-05
1.40993E-05
1.47707E-05
1.62814E-05
1.64492E-05
1.64492E-05
1.69528E-05
1.72885E-05
1.4435E-05
1.02388E-05
7.04967E-06
6.21042E-06
7.21752E-06
8.56031E-06
8.56031E-06
7.04967E-06
3.18914E-06
2.85344E-06
5.87472E-06
9.90311E-06
1.25887E-05
9.23171E-06
2.51774E-06
-2.01419E-06
-2.51774E-06
-1.0071E-06
1.51064E-06
7.04967E-06
1.62814E-05
2.38346E-05
2.83665E-05
3.20592E-05
3.50805E-05
3.40734E-05
3.07164E-05
2.73594E-05
2.3331E-05
1.99741E-05
1.62814E-05
1.04067E-05
4.53193E-06
3.86053E-06
5.53902E-06
5.87472E-06
2.01419E-06
-1.0071E-06
-5.03548E-07
1.34279E-06
3.35698E-06
8.22461E-06
1.1078E-05
8.22461E-06
3.02129E-06
3.35698E-07
1.17494E-06
3.69268E-06
5.03548E-06
9.06386E-06
1.19173E-05
1.05745E-05
6.54612E-06
3.69268E-06
2.18204E-06
3.86053E-06
8.56031E-06
1.27565E-05
1.46029E-05
1.76242E-05
1.99741E-05
1.93027E-05
1.59457E-05
1.32601E-05
1.19173E-05
1.29244E-05
1.52743E-05
1.52743E-05
1.46029E-05
1.66171E-05
1.94705E-05
1.99741E-05
1.96384E-05
1.99741E-05
1.93027E-05
1.66171E-05
1.66171E-05
1.59457E-05
1.05745E-05
3.02129E-06
-2.85344E-06
-5.03548E-06
-4.53193E-06
-3.86053E-06
-2.85344E-06
1.17494E-06
4.19623E-06
4.53193E-06
4.69978E-06
5.20333E-06
8.22461E-06
1.32601E-05
1.62814E-05
1.81277E-05
1.76242E-05
1.82956E-05
1.71206E-05
1.46029E-05
1.19173E-05
6.54612E-06
-5.03548E-07
-9.56741E-06
-1.30922E-05
-7.55322E-06
2.51774E-06
1.37636E-05
2.26596E-05
3.25628E-05
4.33051E-05
5.28725E-05
5.74044E-05
5.62295E-05
5.22011E-05
4.93477E-05
4.54871E-05
3.52483E-05
2.46738E-05
1.99741E-05
1.82956E-05
1.51064E-05
9.73526E-06
2.51774E-06
-5.20333E-06
-1.1078E-05
-1.52743E-05
-1.82956E-05
-2.13169E-05
-2.26596E-05
-1.8967E-05
-1.54421E-05
-1.4435E-05
-1.25887E-05
-8.22461E-06
-3.35698E-07
9.90311E-06
1.91348E-05
2.75273E-05
3.81018E-05
4.48157E-05
4.64942E-05
4.41443E-05
3.82696E-05
3.30663E-05
2.63523E-05
1.94705E-05
1.52743E-05
8.72816E-06
8.39246E-07
-3.52483E-06
-1.84634E-06
5.20333E-06
1.1078E-05
1.15816E-05
1.30922E-05
1.561E-05
1.4435E-05
1.02388E-05
5.87472E-06
1.51064E-06
1.67849E-07
3.35698E-07
1.17494E-06
1.67849E-06
2.18204E-06
5.20333E-06
8.56031E-06
9.23171E-06
8.56031E-06
7.88891E-06
6.54612E-06
3.18914E-06
1.84634E-06
4.19623E-06
6.88182E-06
6.21042E-06
3.86053E-06
3.02129E-06
3.18914E-06
1.51064E-06
2.34989E-06
7.38537E-06
1.05745E-05
9.23171E-06
9.06386E-06
1.32601E-05
1.93027E-05
2.26596E-05
2.24918E-05
2.29953E-05
2.1149E-05
1.62814E-05
1.2253E-05
9.39956E-06
9.90311E-06
1.39315E-05
1.59457E-05
1.32601E-05
1.19173E-05
1.02388E-05
4.86763E-06
-1.51064E-06
-6.21042E-06
-9.90311E-06
-1.29244E-05
-1.25887E-05
-7.21752E-06
-1.0071E-06
2.51774E-06
5.20333E-06
7.55322E-06
8.56031E-06
1.2253E-05
2.03098E-05
2.76951E-05
3.32342E-05
3.79339E-05
4.07874E-05
4.24659E-05
4.04517E-05
3.81018E-05
3.65911E-05
3.32342E-05
2.83665E-05
2.36667E-05
1.86313E-05
1.37636E-05
9.23171E-06
5.03548E-06
2.18204E-06
1.84634E-06
1.84634E-06
3.02129E-06
7.21752E-06
7.88891E-06
3.18914E-06
-2.85344E-06
-6.54612E-06
-5.53902E-06
-3.52483E-06
-2.18204E-06
-1.17494E-06
1.17494E-06
5.20333E-06
9.39956E-06
1.02388E-05
1.12459E-05
1.39315E-05
1.32601E-05
1.02388E-05
9.23171E-06
9.90311E-06
9.06386E-06
7.55322E-06
7.55322E-06
8.39246E-06
1.05745E-05
1.17494E-05
9.90311E-06
9.23171E-06
1.05745E-05
1.19173E-05
1.32601E-05
1.96384E-05
3.17235E-05
4.38086E-05
4.81727E-05
4.54871E-05
4.21302E-05
3.79339E-05
3.13878E-05
2.19882E-05
1.4435E-05
1.2253E-05
1.2253E-05
1.19173E-05
1.32601E-05
1.561E-05
1.62814E-05
1.64492E-05
1.4435E-05
1.0071E-05
4.86763E-06
1.17494E-06
-1.67849E-07
0
-3.35698E-07
-1.67849E-06
-4.19623E-06
-6.88182E-06
-6.54612E-06
-2.85344E-06
8.39246E-07
1.84634E-06
3.02129E-06
2.01419E-06
8.39246E-07
-5.03548E-07
-1.0071E-06
1.67849E-06
6.37827E-06
7.88891E-06
4.86763E-06
2.01419E-06
2.18204E-06
3.86053E-06
3.69268E-06
5.03548E-07
-3.35698E-07
-8.39246E-07
2.34989E-06
6.54612E-06
1.0071E-05
1.25887E-05
1.46029E-05
1.35958E-05
1.24208E-05
1.51064E-05
1.86313E-05
1.93027E-05
1.93027E-05
1.96384E-05
2.13169E-05
2.26596E-05
2.19882E-05
2.09812E-05
1.72885E-05
1.39315E-05
1.19173E-05
7.21752E-06
1.84634E-06
1.17494E-06
7.55322E-06
1.32601E-05
1.49386E-05
1.4435E-05
1.51064E-05
2.04776E-05
2.53452E-05
2.43381E-05
2.43381E-05
2.6688E-05
3.05486E-05
3.20592E-05
3.07164E-05
2.92058E-05
2.65202E-05
2.36667E-05
2.26596E-05
1.96384E-05
1.4435E-05
1.05745E-05
6.88182E-06
5.20333E-06
5.70687E-06
4.53193E-06
3.86053E-06
3.69268E-06
3.52483E-06
3.86053E-06
2.18204E-06
-1.84634E-06
-5.20333E-06
-7.88891E-06
-1.04067E-05
-1.02388E-05
-3.52483E-06
6.04257E-06
1.66171E-05
2.93736E-05
3.86053E-05
3.86053E-05
3.18914E-05
2.13169E-05
1.12459E-05
5.20333E-06
2.85344E-06
1.0071E-06
-2.18204E-06
-3.18914E-06
-2.85344E-06
-6.21042E-06
-9.56741E-06
-5.53902E-06
6.71397E-07
3.86053E-06
4.19623E-06
5.87472E-06
7.88891E-06
9.90311E-06
1.32601E-05
1.46029E-05
1.29244E-05
1.02388E-05
9.23171E-06
1.05745E-05
1.35958E-05
1.4435E-05
1.2253E-05
1.05745E-05
1.02388E-05
1.02388E-05
1.29244E-05
1.81277E-05
2.13169E-05
1.98062E-05
1.19173E-05
2.51774E-06
-1.17494E-06
-3.18914E-06
-4.86763E-06
-5.53902E-06
-6.54612E-06
-1.2253E-05
-1.49386E-05
-8.72816E-06
3.35698E-07
8.89601E-06
1.72885E-05
2.70237E-05
3.81018E-05
4.88441E-05
5.48867E-05
5.13619E-05
4.21302E-05
3.20592E-05
2.60166E-05
2.16526E-05
1.62814E-05
1.42672E-05
1.42672E-05
1.30922E-05
1.40993E-05
1.59457E-05
1.57778E-05
1.39315E-05
1.14137E-05
1.14137E-05
1.24208E-05
1.05745E-05
7.88891E-06
6.88182E-06
7.88891E-06
8.56031E-06
6.88182E-06
1.67849E-06
-5.87472E-06
-1.15816E-05
-1.46029E-05
-1.39315E-05
-1.15816E-05
-8.56031E-06
-4.86763E-06
-2.01419E-06
-1.51064E-06
1.67849E-07
4.53193E-06
1.05745E-05
1.66171E-05
2.08133E-05
2.6688E-05
3.59197E-05
4.26337E-05
4.28016E-05
3.99481E-05
3.94446E-05
4.21302E-05
4.73335E-05
4.9012E-05
4.64942E-05
4.09552E-05
3.17235E-05
2.08133E-05
1.32601E-05
1.19173E-05
1.27565E-05
1.39315E-05
1.24208E-05
7.04967E-06
8.39246E-07
-8.39246E-07
2.85344E-06
4.86763E-06
5.20333E-06
3.69268E-06
-5.03548E-07
-3.18914E-06
-1.84634E-06
-3.52483E-06
-8.56031E-06
-1.05745E-05
-9.73526E-06
-6.37827E-06
-4.86763E-06
-5.87472E-06
-8.22461E-06
-9.56741E-06
-1.32601E-05
-1.35958E-05
-1.09102E-05
-1.29244E-05
-1.561E-05
-1.561E-05
-1.64492E-05
-1.49386E-05
-1.09102E-05
-5.53902E-06
5.03548E-06
1.62814E-05
2.19882E-05
2.26596E-05
2.24918E-05
2.34989E-05
2.80308E-05
3.45769E-05
4.11231E-05
4.41443E-05
4.48157E-05
4.66621E-05
4.81727E-05
4.5655E-05
3.96124E-05
3.37377E-05
2.75273E-05
2.29953E-05
1.93027E-05
1.59457E-05
1.29244E-05
1.14137E-05
9.23171E-06
7.88891E-06
6.54612E-06
6.21042E-06
8.22461E-06
1.02388E-05
1.2253E-05
1.49386E-05
1.66171E-05
1.59457E-05
1.57778E-05
1.66171E-05
1.76242E-05
1.66171E-05
1.29244E-05
1.2253E-05
1.59457E-05
1.62814E-05
1.35958E-05
1.1078E-05
6.88182E-06
3.18914E-06
2.01419E-06
5.03548E-07
-3.35698E-07
5.03548E-07
-5.03548E-07
-4.19623E-06
-1.17494E-05
-2.26596E-05
-2.7863E-05
-2.4506E-05
-1.82956E-05
-1.29244E-05
-9.39956E-06
-4.53193E-06
2.51774E-06
7.88891E-06
1.32601E-05
2.1149E-05
2.93736E-05
3.20592E-05
3.15557E-05
3.0045E-05
2.7863E-05
2.51774E-05
2.06455E-05
1.91348E-05
2.1149E-05
2.18204E-05
1.98062E-05
1.72885E-05
1.40993E-05
1.32601E-05
1.17494E-05
8.39246E-06
8.22461E-06
9.23171E-06
7.88891E-06
4.86763E-06
-3.35698E-07
-4.53193E-06
-4.69978E-06
-3.02129E-06
-2.18204E-06
-3.02129E-06
-1.51064E-06
6.71397E-06
1.561E-05
2.13169E-05
2.31632E-05
2.1149E-05
1.7792E-05
1.46029E-05
1.30922E-05
1.30922E-05
1.59457E-05
2.31632E-05
3.3402E-05
4.21302E-05
4.51514E-05
4.28016E-05
4.0116E-05
3.50805E-05
2.48417E-05
1.39315E-05
7.55322E-06
7.04967E-06
8.56031E-06
6.21042E-06
1.17494E-06
-4.53193E-06
-1.09102E-05
-1.25887E-05
-1.05745E-05
-7.55322E-06
-4.53193E-06
-8.39246E-07
2.01419E-06
3.69268E-06
6.54612E-06
1.04067E-05
1.42672E-05
1.69528E-05
1.57778E-05
1.05745E-05
6.54612E-06
7.88891E-06
1.49386E-05
1.87991E-05
1.79599E-05
1.52743E-05
1.15816E-05
9.56741E-06
1.2253E-05
1.32601E-05
1.12459E-05
1.19173E-05
1.25887E-05
1.19173E-05
1.19173E-05
1.25887E-05
9.73526E-06
6.54612E-06
6.04257E-06
8.72816E-06
1.25887E-05
1.29244E-05
1.2253E-05
1.2253E-05
1.25887E-05
1.49386E-05
1.59457E-05
1.59457E-05
1.62814E-05
1.49386E-05
1.15816E-05
7.21752E-06
3.86053E-06
2.18204E-06
2.85344E-06
3.86053E-06
6.37827E-06
6.71397E-06
5.70687E-06
5.53902E-06
7.21752E-06
8.39246E-06
7.21752E-06
4.19623E-06
-1.51064E-06
-6.54612E-06
-8.39246E-06
-6.88182E-06
-3.35698E-06
3.69268E-06
7.55322E-06
6.88182E-06
2.51774E-06
-1.17494E-06
5.03548E-07
3.35698E-06
3.86053E-06
7.21752E-06
1.49386E-05
2.6688E-05
3.99481E-05
5.05226E-05
5.70687E-05
5.62295E-05
5.22011E-05
4.81727E-05
4.41443E-05
3.94446E-05
3.47448E-05
3.07164E-05
2.76951E-05
2.80308E-05
2.87022E-05
2.73594E-05
2.63523E-05
2.46738E-05
1.72885E-05
9.90311E-06
4.86763E-06
-8.39246E-07
-3.18914E-06
-2.85344E-06
-8.39246E-07
1.67849E-07
-2.51774E-06
-6.21042E-06
-6.37827E-06
-4.86763E-06
-5.53902E-06
-7.55322E-06
-1.09102E-05
-1.561E-05
-2.09812E-05
-2.29953E-05
-1.82956E-05
-8.56031E-06
1.84634E-06
1.27565E-05
2.3331E-05
2.83665E-05
2.80308E-05
2.63523E-05
2.4506E-05
2.24918E-05
1.99741E-05
1.57778E-05
1.37636E-05
1.17494E-05
9.23171E-06
6.54612E-06
4.86763E-06
6.21042E-06
9.56741E-06
1.05745E-05
9.23171E-06
8.56031E-06
9.06386E-06
1.25887E-05
1.67849E-05
2.23239E-05
2.71916E-05
2.83665E-05
2.71916E-05
2.50095E-05
2.18204E-05
1.84634E-05
1.52743E-05
1.49386E-05
1.42672E-05
1.2253E-05
7.55322E-06
0
-4.53193E-06
-6.21042E-06
-7.72107E-06
-9.23171E-06
-1.07424E-05
-1.05745E-05
-6.37827E-06
-1.67849E-07
5.20333E-06
7.38537E-06
7.21752E-06
7.72107E-06
1.15816E-05
1.59457E-05
1.93027E-05
2.13169E-05
2.06455E-05
1.93027E-05
1.79599E-05
1.59457E-05
1.15816E-05
5.70687E-06
1.17494E-06
8.39246E-07
5.20333E-06
9.39956E-06
1.17494E-05
1.12459E-05
5.53902E-06
-3.86053E-06
-9.90311E-06
-9.90311E-06
-5.20333E-06
-3.35698E-07
6.37827E-06
1.14137E-05
1.35958E-05
1.561E-05
1.99741E-05
2.40024E-05
2.50095E-05
2.43381E-05
2.3331E-05
2.40024E-05
2.6688E-05
2.85344E-05
2.80308E-05
2.61845E-05
2.19882E-05
1.62814E-05
1.05745E-05
7.21752E-06
7.55322E-06
7.88891E-06
6.88182E-06
5.53902E-06
4.19623E-06
3.18914E-06
2.18204E-06
1.17494E-06
1.84634E-06
2.34989E-06
1.51064E-06
5.03548E-07
1.17494E-06
1.84634E-06
8.39246E-07
-5.03548E-07
5.03548E-07
7.21752E-06
1.84634E-05
3.13878E-05
4.41443E-05
5.35439E-05
5.72366E-05
5.42153E-05
4.51514E-05
3.40734E-05
2.73594E-05
2.36667E-05
2.04776E-05
1.52743E-05
8.39246E-06
4.69978E-06
6.21042E-06
9.23171E-06
1.25887E-05
1.42672E-05
1.19173E-05
9.39956E-06
6.04257E-06
1.51064E-06
-1.67849E-07
-1.51064E-06
-4.86763E-06
-5.20333E-06
-1.67849E-07
6.88182E-06
1.2253E-05
1.52743E-05
1.76242E-05
1.98062E-05
1.94705E-05
1.42672E-05
7.88891E-06
3.69268E-06
1.17494E-06
1.0071E-06
6.71397E-07
-1.17494E-06
-3.18914E-06
-6.88182E-06
-9.73526E-06
-1.02388E-05
-9.90311E-06
-7.55322E-06
-1.51064E-06
4.53193E-06
7.55322E-06
8.05676E-06
5.87472E-06
4.53193E-06
5.70687E-06
1.04067E-05
1.72885E-05
2.80308E-05
3.64233E-05
3.74304E-05
3.40734E-05
3.10521E-05
3.0045E-05
2.6688E-05
2.26596E-05
1.76242E-05
1.32601E-05
1.19173E-05
1.25887E-05
1.02388E-05
7.55322E-06
7.38537E-06
8.72816E-06
1.42672E-05
2.24918E-05
2.98772E-05
3.49126E-05
3.64233E-05
3.52483E-05
3.30663E-05
2.95415E-05
2.26596E-05
1.32601E-05
1.67849E-07
-1.51064E-05
-2.46738E-05
-2.90379E-05
-2.87022E-05
-2.43381E-05
-2.09812E-05
-2.01419E-05
-1.71206E-05
-1.54421E-05
-1.62814E-05
-1.19173E-05
1.51064E-06
1.69528E-05
2.63523E-05
3.20592E-05
4.04517E-05
4.69978E-05
4.51514E-05
3.96124E-05
3.3402E-05
3.07164E-05
3.13878E-05
3.3402E-05
3.30663E-05
2.71916E-05
1.7792E-05
8.89601E-06
4.86763E-06
2.18204E-06
-1.67849E-07
1.17494E-06
6.71397E-07
-3.86053E-06
-6.88182E-06
-7.88891E-06
-6.88182E-06
-6.54612E-06
-6.37827E-06
-4.86763E-06
-2.51774E-06
-2.85344E-06
-3.35698E-06
-1.0071E-06
1.0071E-06
4.19623E-06
8.39246E-06
1.29244E-05
1.72885E-05
2.04776E-05
2.06455E-05
1.72885E-05
1.61135E-05
1.8967E-05
2.19882E-05
1.99741E-05
1.52743E-05
1.25887E-05
1.30922E-05
1.39315E-05
1.19173E-05
7.55322E-06
3.35698E-06
2.51774E-06
3.52483E-06
3.52483E-06
3.52483E-06
6.21042E-06
1.19173E-05
1.76242E-05
2.04776E-05
2.01419E-05
1.72885E-05
9.90311E-06
5.87472E-06
5.87472E-06
6.04257E-06
7.72107E-06
1.59457E-05
2.63523E-05
3.40734E-05
3.77661E-05
3.6759E-05
3.42412E-05
2.97093E-05
2.46738E-05
2.3331E-05
1.94705E-05
1.29244E-05
7.21752E-06
3.86053E-06
3.02129E-06
6.71397E-07
-6.21042E-06
-8.56031E-06
-6.54612E-06
-4.69978E-06
-5.53902E-06
-4.86763E-06
-3.52483E-06
-8.39246E-07
4.53193E-06
1.02388E-05
1.25887E-05
1.64492E-05
2.23239E-05
2.61845E-05
2.60166E-05
2.40024E-05
2.29953E-05
1.99741E-05
1.66171E-05
1.51064E-05
1.29244E-05
1.29244E-05
1.71206E-05
2.23239E-05
2.63523E-05
2.71916E-05
2.58488E-05
2.58488E-05
2.46738E-05
2.24918E-05
2.03098E-05
1.81277E-05
1.24208E-05
3.86053E-06
-3.18914E-06
-6.37827E-06
-8.72816E-06
-1.0071E-05
-8.89601E-06
-5.37118E-06
-1.67849E-06
-2.18204E-06
-3.86053E-06
-1.84634E-06
1.67849E-07
-6.71397E-07
-3.52483E-06
-2.51774E-06
3.86053E-06
7.72107E-06
4.69978E-06
5.03548E-07
1.51064E-06
9.23171E-06
2.13169E-05
3.3402E-05
4.38086E-05
5.1194E-05
5.01869E-05
4.24659E-05
3.13878E-05
2.29953E-05
1.8967E-05
1.66171E-05
1.05745E-05
6.54612E-06
7.21752E-06
9.23171E-06
1.14137E-05
1.32601E-05
1.52743E-05
1.64492E-05
1.49386E-05
1.05745E-05
9.56741E-06
9.90311E-06
7.72107E-06
3.52483E-06
0
-3.35698E-06
-3.86053E-06
-3.52483E-06
-2.18204E-06
-3.35698E-06
-6.21042E-06
-6.54612E-06
-3.69268E-06
-1.17494E-06
-1.0071E-06
-3.35698E-07
-1.0071E-06
-1.17494E-06
5.03548E-07
1.84634E-06
4.86763E-06
9.90311E-06
1.69528E-05
2.3331E-05
2.73594E-05
3.23949E-05
3.64233E-05
3.54162E-05
3.20592E-05
3.122E-05
3.05486E-05
2.6688E-05
1.99741E-05
1.15816E-05
5.20333E-06
-1.67849E-07
-7.21752E-06
-1.27565E-05
-1.72885E-05
-1.96384E-05
-1.72885E-05
-9.73526E-06
-2.85344E-06
4.86763E-06
1.59457E-05
2.93736E-05
4.38086E-05
5.42153E-05
5.65652E-05
5.22011E-05
4.24659E-05
3.20592E-05
2.58488E-05
2.23239E-05
2.06455E-05
2.06455E-05
1.72885E-05
1.12459E-05
6.88182E-06
3.69268E-06
2.18204E-06
1.17494E-06
1.51064E-06
3.18914E-06
4.19623E-06
4.86763E-06
3.52483E-06
-8.39246E-07
-4.86763E-06
-4.69978E-06
-4.86763E-06
-5.87472E-06
-2.85344E-06
3.35698E-06
6.21042E-06
5.37118E-06
4.02838E-06
4.36408E-06
1.0071E-06
-4.53193E-06
-9.56741E-06
-1.17494E-05
-9.23171E-06
-3.35698E-06
3.86053E-06
1.12459E-05
1.35958E-05
1.17494E-05
9.23171E-06
1.12459E-05
1.74563E-05
2.31632E-05
2.87022E-05
3.50805E-05
3.74304E-05
3.52483E-05
3.0045E-05
2.71916E-05
2.98772E-05
3.20592E-05
2.93736E-05
2.3331E-05
1.37636E-05
6.88182E-06
3.86053E-06
2.51774E-06
3.18914E-06
5.20333E-06
5.87472E-06
7.04967E-06
1.04067E-05
1.15816E-05
1.04067E-05
1.15816E-05
1.15816E-05
1.09102E-05
1.29244E-05
1.67849E-05
1.66171E-05
1.39315E-05
1.05745E-05
7.88891E-06
5.20333E-06
3.18914E-06
2.85344E-06
3.52483E-06
3.86053E-06
5.20333E-06
9.23171E-06
1.37636E-05
1.59457E-05
1.59457E-05
1.30922E-05
9.23171E-06
9.23171E-06
1.19173E-05
1.52743E-05
1.46029E-05
1.32601E-05
1.42672E-05
1.47707E-05
1.4435E-05
1.39315E-05
1.32601E-05
1.19173E-05
9.90311E-06
8.89601E-06
1.04067E-05
8.56031E-06
6.21042E-06
7.88891E-06
1.05745E-05
1.20851E-05
1.25887E-05
1.05745E-05
9.73526E-06
1.05745E-05
1.46029E-05
1.59457E-05
1.32601E-05
9.90311E-06
9.73526E-06
1.05745E-05
9.23171E-06
6.21042E-06
3.18914E-06
-5.03548E-07
-1.84634E-06
2.34989E-06
5.87472E-06
5.87472E-06
7.38537E-06
8.89601E-06
1.02388E-05
7.88891E-06
2.34989E-06
-2.85344E-06
-5.20333E-06
-5.87472E-06
-6.21042E-06
-3.52483E-06
4.19623E-06
1.66171E-05
3.13878E-05
4.46479E-05
5.32082E-05
5.50546E-05
5.27047E-05
4.7837E-05
4.0116E-05
3.02129E-05
1.69528E-05
5.20333E-06
-1.17494E-06
-4.86763E-06
-1.15816E-05
-1.8967E-05
-1.96384E-05
-1.69528E-05
-1.29244E-05
-8.22461E-06
-1.84634E-06
6.54612E-06
1.54421E-05
2.21561E-05
2.83665E-05
3.50805E-05
3.94446E-05
3.94446E-05
3.6759E-05
3.54162E-05
3.44091E-05
3.32342E-05
3.45769E-05
3.60876E-05
3.3402E-05
2.46738E-05
1.561E-05
9.56741E-06
6.88182E-06
5.20333E-06
2.51774E-06
1.51064E-06
1.84634E-06
-3.35698E-07
-3.86053E-06
-6.54612E-06
-8.56031E-06
-6.54612E-06
-5.87472E-06
-8.22461E-06
-8.72816E-06
-8.39246E-06
-6.21042E-06
-3.35698E-07
3.18914E-06
1.17494E-06
-3.69268E-06
-5.53902E-06
-2.85344E-06
2.18204E-06
8.56031E-06
1.59457E-05
2.38346E-05
2.65202E-05
2.51774E-05
2.36667E-05
2.16526E-05
1.72885E-05
1.39315E-05
1.46029E-05
1.37636E-05
1.04067E-05
6.37827E-06
5.70687E-06
5.70687E-06
5.87472E-06
6.54612E-06
7.21752E-06
6.54612E-06
6.88182E-06
1.05745E-05
1.52743E-05
1.66171E-05
1.51064E-05
1.49386E-05
1.47707E-05
1.59457E-05
1.99741E-05
2.19882E-05
1.93027E-05
1.4435E-05
1.19173E-05
1.17494E-05
1.12459E-05
9.90311E-06
5.20333E-06
8.39246E-07
-2.51774E-06
-5.87472E-06
-6.88182E-06
-8.22461E-06
-1.04067E-05
-1.02388E-05
-1.17494E-05
-1.52743E-05
-1.32601E-05
-7.38537E-06
-1.51064E-06
5.70687E-06
1.42672E-05
2.61845E-05
4.19623E-05
5.4551E-05
6.02579E-05
6.19364E-05
5.99222E-05
5.57259E-05
5.15297E-05
4.61585E-05
4.24659E-05
3.81018E-05
3.07164E-05
2.24918E-05
1.25887E-05
-5.03548E-07
-1.09102E-05
-1.561E-05
-1.7792E-05
-1.91348E-05
-1.86313E-05
-1.39315E-05
-7.55322E-06
