0
0
0
0
0
0
0
0
0
0
0
0
0
0
0
0
0
0
0
0
0
0
0
0
0
0
0
0
0
0
0
0
0
0
0
0
0
0
0
0
0
0
0
0
0
0
0
0
0
0
0
0
0
0
0
0
0
0
0
0
0
0
0
0
0
0
0
0
0
0
0
0
0
0
0
0
0
0
-2.48417E-05
-3.57519E-05
-3.97803E-05
-3.44091E-05
-2.3331E-05
-1.02388E-05
8.39246E-07
5.87472E-06
5.87472E-06
4.19623E-06
2.01419E-06
1.17494E-06
-6.71397E-07
-6.54612E-06
-1.4435E-05
-2.09812E-05
-2.19882E-05
-2.29953E-05
-2.38346E-05
-1.93027E-05
-1.04067E-05
-5.03548E-07
9.23171E-06
1.52743E-05
1.69528E-05
1.69528E-05
1.79599E-05
2.23239E-05
2.87022E-05
3.40734E-05
3.79339E-05
3.70947E-05
2.93736E-05
1.93027E-05
1.32601E-05
9.56741E-06
3.18914E-06
-6.21042E-06
-1.76242E-05
-2.87022E-05
-3.87732E-05
-5.01869E-05
-6.05936E-05
-6.96574E-05
-7.60357E-05
-7.46929E-05
-5.92508E-05
-2.31632E-05
2.73594E-05
7.63714E-05
0.000118837
0.000146029
0.000154589
0.000150225
0.000137972
0.000117998
9.44991E-05
6.8986E-05
3.84375E-05
8.72816E-06
-1.59457E-05
-4.26337E-05
-6.73075E-05
-7.97284E-05
-8.09033E-05
-7.67071E-05
-6.79789E-05
-5.32082E-05
-3.25628E-05
-1.62814E-05
-1.1078E-05
-1.37636E-05
-2.70237E-05
-4.17945E-05
-4.64942E-05
-4.54871E-05
-4.2298E-05
-3.45769E-05
-1.29244E-05
3.07164E-05
9.19814E-05
0.000152911
0.000197726
0.000222065
0.00022475
0.000207126
0.000183124
0.000158785
0.000126726
8.42603E-05
4.64942E-05
2.36667E-05
1.15816E-05
1.0071E-06
-7.88891E-06
-1.09102E-05
-8.22461E-06
-5.53902E-06
-5.20333E-06
-6.21042E-06
-7.88891E-06
-1.09102E-05
-1.7792E-05
-2.6688E-05
-3.39055E-05
-4.17945E-05
-4.36408E-05
-4.02838E-05
-3.94446E-05
-4.17945E-05
-4.16266E-05
-3.99481E-05
-3.81018E-05
-3.57519E-05
-3.10521E-05
-1.98062E-05
-8.39246E-06
-5.53902E-06
-8.72816E-06
-1.29244E-05
-1.35958E-05
-1.49386E-05
-1.76242E-05
-1.47707E-05
-5.03548E-06
5.20333E-06
1.64492E-05
2.50095E-05
2.13169E-05
1.46029E-05
1.79599E-05
2.81987E-05
3.96124E-05
4.76692E-05
4.95155E-05
4.3473E-05
2.92058E-05
6.21042E-06
-1.86313E-05
-3.60876E-05
-4.3473E-05
-4.49836E-05
-4.64942E-05
-6.19364E-05
-8.25818E-05
-8.5771E-05
-6.56291E-05
-4.04517E-05
-2.53452E-05
-2.41703E-05
-3.64233E-05
-5.15297E-05
-4.81727E-05
-1.71206E-05
3.07164E-05
7.87213E-05
0.000125383
0.000169024
0.000194034
0.00019588
0.000187655
0.000176242
0.000155932
0.000130083
0.000100206
5.4551E-05
-4.36408E-06
-5.75723E-05
-9.63455E-05
-0.000117662
-0.000126726
-0.000133104
-0.000137301
-0.000134447
-0.000129747
-0.000120516
-0.000100877
-7.97284E-05
-5.99222E-05
-2.71916E-05
2.73594E-05
9.91989E-05
0.00016936
0.000222736
0.00025832
0.000269734
0.000261677
0.000243381
0.000213672
0.000171374
0.000117327
5.7908E-05
3.86053E-06
-3.70947E-05
-6.36149E-05
-8.1239E-05
-9.4667E-05
-9.70169E-05
-8.62745E-05
-6.69719E-05
-4.88441E-05
-4.0116E-05
-3.84375E-05
-3.87732E-05
-3.50805E-05
-2.76951E-05
-3.57519E-05
-6.24399E-05
-8.74495E-05
-9.83597E-05
-9.51705E-05
-8.64424E-05
-8.00641E-05
-6.93217E-05
-4.38086E-05
-8.89601E-06
2.09812E-05
3.77661E-05
4.54871E-05
3.50805E-05
7.04967E-06
-2.56809E-05
-4.71656E-05
-5.42153E-05
-4.46479E-05
-1.66171E-05
1.62814E-05
3.86053E-05
5.06905E-05
5.10262E-05
4.58228E-05
4.07874E-05
3.64233E-05
3.47448E-05
3.94446E-05
5.15297E-05
7.36858E-05
9.95346E-05
0.000129747
0.000158953
0.00017171
0.000150225
9.78561E-05
4.9012E-05
1.59457E-05
-5.53902E-06
-1.67849E-05
-2.80308E-05
-4.24659E-05
-4.85084E-05
-3.97803E-05
-2.06455E-05
-3.52483E-06
3.69268E-06
1.12459E-05
2.98772E-05
5.32082E-05
7.16716E-05
8.14069E-05
8.67781E-05
8.5771E-05
7.10002E-05
5.05226E-05
3.03807E-05
2.85344E-06
-4.33051E-05
-8.50996E-05
-9.97024E-05
-9.16457E-05
-7.11681E-05
-4.81727E-05
-3.27306E-05
-3.17235E-05
-4.28016E-05
-5.28725E-05
-5.06905E-05
-3.94446E-05
-3.03807E-05
-2.36667E-05
-1.66171E-05
-1.39315E-05
-1.39315E-05
-1.57778E-05
-1.84634E-05
-1.82956E-05
-1.71206E-05
-9.06386E-06
1.02388E-05
3.6759E-05
6.69719E-05
0.000102892
0.000149554
0.000196887
0.000232136
0.000256306
0.000261006
0.000246235
0.00022005
0.000181109
0.00012723
6.56291E-05
1.0071E-05
-2.65202E-05
-4.51514E-05
-5.57259E-05
-6.36149E-05
-6.93217E-05
-7.08324E-05
-6.74754E-05
-6.61326E-05
-7.10002E-05
-7.87213E-05
-8.37568E-05
-8.37568E-05
-7.73785E-05
-6.73075E-05
-5.99222E-05
-5.48867E-05
-5.08583E-05
-4.93477E-05
-5.05226E-05
-5.25368E-05
-5.28725E-05
-5.05226E-05
-4.64942E-05
-4.16266E-05
-3.54162E-05
-2.90379E-05
-2.21561E-05
-1.49386E-05
-1.20851E-05
-1.12459E-05
-9.23171E-06
-8.56031E-06
-8.89601E-06
-8.22461E-06
-6.37827E-06
-2.01419E-06
6.21042E-06
1.64492E-05
2.60166E-05
3.0045E-05
2.56809E-05
1.4435E-05
3.86053E-06
2.51774E-06
5.20333E-06
7.38537E-06
9.23171E-06
1.39315E-05
2.23239E-05
2.92058E-05
3.27306E-05
3.59197E-05
3.69268E-05
3.20592E-05
2.01419E-05
7.55322E-06
6.71397E-07
-4.19623E-06
-1.62814E-05
-3.37377E-05
-5.00191E-05
-5.62295E-05
-5.58938E-05
-5.75723E-05
-5.60616E-05
-5.15297E-05
-4.76692E-05
-4.51514E-05
-4.51514E-05
-4.66621E-05
-4.81727E-05
-5.15297E-05
-6.64683E-05
-0.000105577
-0.000143175
-0.000145861
-0.000114977
-8.00641E-05
-4.98512E-05
-2.97093E-05
-2.3331E-05
-2.31632E-05
-1.561E-05
1.69528E-05
7.95605E-05
0.000146532
0.000198566
0.000238849
0.000271077
0.000299947
0.000334524
0.000375814
0.000424155
0.000475181
0.000506065
0.000496666
0.00045034
0.000368765
0.000260334
0.000147036
4.91798E-05
-1.76242E-05
-6.26078E-05
-0.000101884
-0.000129076
-0.000138979
-0.000137133
-0.000136797
-0.000143847
-0.000151736
-0.0001514
-0.000139818
-0.000125719
-0.000114137
-0.00010692
-0.000101549
-9.48348E-05
-8.82887E-05
-8.14069E-05
-7.57E-05
-7.83856E-05
-8.71138E-05
-9.33242E-05
-9.65133E-05
-9.04707E-05
-7.55322E-05
-6.16007E-05
-5.01869E-05
-3.39055E-05
-1.19173E-05
1.19173E-05
3.50805E-05
5.6733E-05
7.57E-05
9.16457E-05
0.000105577
0.000116655
0.000119173
0.000109773
9.48348E-05
7.33501E-05
3.74304E-05
-6.54612E-06
-4.85084E-05
-7.48608E-05
-8.20783E-05
-7.48608E-05
-6.42863E-05
-5.38796E-05
-4.46479E-05
-3.60876E-05
-2.36667E-05
-1.1078E-05
5.03548E-07
9.23171E-06
7.72107E-06
-5.03548E-06
-2.21561E-05
-3.74304E-05
-4.41443E-05
-4.21302E-05
-3.92767E-05
-3.57519E-05
-3.91089E-05
-5.40475E-05
-6.52934E-05
-5.55581E-05
-2.48417E-05
1.12459E-05
3.03807E-05
3.27306E-05
2.6688E-05
2.19882E-05
2.40024E-05
2.50095E-05
2.53452E-05
3.15557E-05
3.64233E-05
3.45769E-05
3.0045E-05
3.17235E-05
4.61585E-05
7.06645E-05
8.22461E-05
6.76432E-05
3.94446E-05
1.76242E-05
6.21042E-06
8.39246E-07
4.36408E-06
9.39956E-06
6.21042E-06
1.0071E-06
5.03548E-07
3.18914E-06
7.21752E-06
9.90311E-06
1.32601E-05
2.38346E-05
4.64942E-05
7.2343E-05
9.65133E-05
0.000119677
0.000139483
0.000150225
0.000148882
0.000138811
0.000122026
9.98703E-05
7.46929E-05
4.81727E-05
1.79599E-05
-1.99741E-05
-6.37827E-05
-9.63455E-05
-0.00010457
-9.76883E-05
-8.14069E-05
-6.56291E-05
-5.99222E-05
-6.49577E-05
-7.16716E-05
-6.79789E-05
-5.03548E-05
-2.6688E-05
-2.34989E-06
2.06455E-05
3.42412E-05
3.27306E-05
2.40024E-05
1.59457E-05
1.34279E-05
1.59457E-05
1.72885E-05
1.46029E-05
8.56031E-06
-4.53193E-06
-2.53452E-05
-4.64942E-05
-5.87472E-05
-5.85794E-05
-5.38796E-05
-4.9012E-05
-4.21302E-05
-3.03807E-05
-2.03098E-05
-9.73526E-06
1.29244E-05
4.26337E-05
6.81468E-05
8.74495E-05
0.000101884
0.000105745
9.76883E-05
8.10712E-05
5.52224E-05
2.13169E-05
3.52483E-06
1.02388E-05
1.66171E-05
1.05745E-05
3.52483E-06
-9.56741E-06
-3.44091E-05
-5.55581E-05
-5.32082E-05
-2.87022E-05
4.86763E-06
3.79339E-05
6.94896E-05
0.000101717
0.000131426
0.000158282
0.000179599
0.000187823
0.000178088
0.000151568
0.000115816
8.03998E-05
4.68299E-05
1.561E-05
-8.56031E-06
-2.81987E-05
-4.76692E-05
-6.39506E-05
-7.53643E-05
-8.27497E-05
-8.87922E-05
-0.000100206
-0.000116152
-0.000129244
-0.000127398
-0.000113634
-9.08064E-05
-5.00191E-05
6.71397E-07
3.96124E-05
5.70687E-05
6.09293E-05
6.09293E-05
6.63005E-05
7.60357E-05
8.44282E-05
9.19814E-05
9.48348E-05
8.50996E-05
6.29435E-05
3.82696E-05
1.84634E-05
7.55322E-06
1.0071E-05
2.23239E-05
3.92767E-05
5.53903E-05
6.24399E-05
6.3447E-05
5.89151E-05
4.26337E-05
1.62814E-05
-7.21752E-06
-2.46738E-05
-4.5655E-05
-7.46929E-05
-0.000101045
-0.000112963
-0.00012018
-0.00013109
-0.000140826
-0.000144518
-0.00013814
-0.000122698
-0.000102556
-8.03998E-05
-5.40475E-05
-2.61845E-05
-4.19623E-06
1.46029E-05
3.57519E-05
5.69009E-05
7.50286E-05
9.91989E-05
0.000126055
0.000145525
0.000152575
0.000148882
0.000127062
8.39246E-05
3.70947E-05
-5.03548E-07
-2.88701E-05
-4.448E-05
-4.12909E-05
-2.83665E-05
-1.64492E-05
-8.22461E-06
-1.84634E-06
4.86763E-06
1.02388E-05
1.32601E-05
1.66171E-05
1.94705E-05
1.64492E-05
1.04067E-05
6.54612E-06
9.23171E-06
2.93736E-05
6.69719E-05
0.000107088
0.000142504
0.00016936
0.000176745
0.000158618
0.000125551
9.78561E-05
8.5771E-05
8.17426E-05
6.88182E-05
4.33051E-05
1.49386E-05
-1.09102E-05
-3.54162E-05
-5.38796E-05
-6.09293E-05
-5.82437E-05
-5.42153E-05
-5.25368E-05
-4.98512E-05
-3.84375E-05
-2.50095E-05
-1.8967E-05
-1.76242E-05
-3.20592E-05
-5.72366E-05
-7.82178E-05
-8.61067E-05
-8.1239E-05
-7.06645E-05
-6.63005E-05
-7.33501E-05
-8.84565E-05
-0.000105074
-0.000109606
-8.82887E-05
-4.71656E-05
-4.02838E-06
2.90379E-05
5.60616E-05
8.34211E-05
0.000105913
0.000119341
0.000123369
0.000127062
0.000120012
8.37568E-05
3.37377E-05
-2.18204E-06
-1.82956E-05
-3.13878E-05
-5.69009E-05
-8.00641E-05
-8.00641E-05
-6.32792E-05
-5.1194E-05
-5.25368E-05
-6.52934E-05
-7.73785E-05
-7.40215E-05
-5.00191E-05
-3.35698E-06
6.42863E-05
0.000136797
0.000193698
0.000224414
0.000236667
0.000233814
0.000221225
0.000206622
0.00019588
0.000173724
0.000123201
5.85794E-05
4.19623E-06
-3.03807E-05
-4.43122E-05
-4.54871E-05
-5.00191E-05
-6.05936E-05
-7.33501E-05
-7.98962E-05
-7.82178E-05
-6.93217E-05
-5.4551E-05
-3.44091E-05
-1.15816E-05
1.05745E-05
2.63523E-05
3.20592E-05
2.63523E-05
1.62814E-05
7.55322E-06
-2.85344E-06
-1.64492E-05
-2.70237E-05
-2.31632E-05
-1.02388E-05
8.56031E-06
2.6688E-05
3.91089E-05
4.61585E-05
4.73335E-05
4.0116E-05
2.13169E-05
-3.69268E-06
-1.98062E-05
-1.86313E-05
-1.05745E-05
-9.56741E-06
-1.94705E-05
-3.13878E-05
-3.32342E-05
-2.19882E-05
-5.53902E-06
8.56031E-06
1.76242E-05
1.98062E-05
1.19173E-05
2.18204E-06
-3.35698E-07
3.69268E-06
7.88891E-06
6.54612E-06
-3.35698E-07
-8.22461E-06
-1.64492E-05
-2.16526E-05
-2.16526E-05
-1.94705E-05
-1.87991E-05
-1.91348E-05
-2.38346E-05
-2.61845E-05
-1.96384E-05
-8.22461E-06
6.71397E-07
2.85344E-06
6.71397E-07
1.17494E-06
1.17494E-06
-2.51774E-06
-7.55322E-06
-5.03548E-06
6.54612E-06
2.13169E-05
3.07164E-05
3.6759E-05
4.06195E-05
3.81018E-05
3.27306E-05
2.50095E-05
1.71206E-05
1.17494E-05
1.05745E-05
1.25887E-05
1.52743E-05
1.59457E-05
1.49386E-05
1.59457E-05
2.29953E-05
3.17235E-05
3.74304E-05
4.06195E-05
4.04517E-05
3.47448E-05
2.26596E-05
1.02388E-05
7.21752E-06
1.17494E-05
1.561E-05
1.72885E-05
2.23239E-05
3.47448E-05
5.05226E-05
6.4622E-05
7.57E-05
7.80499E-05
6.79789E-05
5.15297E-05
3.60876E-05
2.13169E-05
9.06386E-06
-6.54612E-06
-2.43381E-05
-3.59197E-05
-4.0116E-05
-4.24659E-05
-5.52224E-05
-8.00641E-05
-0.000105577
-0.000121523
-0.000132769
-0.000150561
-0.000176242
-0.000199573
-0.00020293
-0.000177752
-0.000131762
-7.77142E-05
-1.82956E-05
4.81727E-05
0.000113634
0.000171206
0.000221897
0.000272251
0.000318074
0.000352987
0.000370443
0.000357015
0.000318074
0.000266041
0.000197894
0.000121187
5.42153E-05
1.15816E-05
-1.25887E-05
-2.71916E-05
-3.77661E-05
-4.61585E-05
-4.75013E-05
-3.87732E-05
-2.97093E-05
-2.50095E-05
-2.71916E-05
-3.27306E-05
-4.04517E-05
-4.58228E-05
-4.54871E-05
-4.31373E-05
-4.21302E-05
-4.07874E-05
-3.94446E-05
-3.64233E-05
-3.10521E-05
-2.46738E-05
-2.09812E-05
-1.72885E-05
-1.71206E-05
-2.18204E-05
-2.70237E-05
-2.63523E-05
-1.24208E-05
1.02388E-05
3.07164E-05
4.04517E-05
3.6759E-05
2.43381E-05
9.23171E-06
-7.21752E-06
-2.63523E-05
-4.51514E-05
-5.97543E-05
-7.03288E-05
-7.50286E-05
-7.57E-05
-7.73785E-05
-7.75464E-05
-7.06645E-05
-5.35439E-05
-2.80308E-05
8.39246E-07
2.65202E-05
4.39765E-05
5.32082E-05
5.25368E-05
4.9012E-05
4.76692E-05
4.448E-05
3.57519E-05
2.40024E-05
1.7792E-05
1.79599E-05
1.79599E-05
1.39315E-05
6.21042E-06
-2.85344E-06
-9.56741E-06
-1.1078E-05
-1.09102E-05
-1.15816E-05
-1.37636E-05
-1.69528E-05
-1.46029E-05
-3.18914E-06
1.66171E-05
3.82696E-05
5.7908E-05
7.50286E-05
8.50996E-05
8.77851E-05
7.93927E-05
6.02579E-05
3.74304E-05
1.49386E-05
-5.53902E-06
-2.76951E-05
-5.62295E-05
-8.1239E-05
-9.97024E-05
-0.000117998
-0.00013109
-0.000124712
-9.90311E-05
-7.10002E-05
-5.69009E-05
-5.1194E-05
-3.23949E-05
1.02388E-05
7.70428E-05
0.000151904
0.000208804
0.000238849
0.000251606
0.000253284
0.000242542
0.000211154
0.000165331
0.000122698
8.34211E-05
4.38086E-05
1.2253E-05
-1.19173E-05
-3.86053E-05
-6.39506E-05
-7.95605E-05
-8.35889E-05
-7.67071E-05
-6.64683E-05
-5.58938E-05
-3.17235E-05
1.32601E-05
6.56291E-05
0.000109606
0.00013814
0.000151904
0.000148882
0.000132097
0.000106584
7.73785E-05
4.91798E-05
2.40024E-05
-3.69268E-06
-3.40734E-05
-5.94186E-05
-7.33501E-05
-8.07355E-05
-8.34211E-05
-8.39246E-05
-8.7953E-05
-9.55062E-05
-9.86954E-05
-9.60098E-05
-9.14778E-05
-8.87922E-05
-8.71138E-05
-8.34211E-05
-8.07355E-05
-7.95605E-05
-7.80499E-05
-7.2343E-05
-6.19364E-05
-5.53903E-05
-5.65652E-05
-4.85084E-05
-2.21561E-05
9.90311E-06
3.64233E-05
5.28725E-05
6.36149E-05
6.8986E-05
6.74754E-05
6.42863E-05
6.36149E-05
6.31113E-05
6.29435E-05
6.26078E-05
6.83146E-05
8.03998E-05
8.74495E-05
8.82887E-05
8.87922E-05
9.31563E-05
9.58419E-05
9.44991E-05
8.5771E-05
6.76432E-05
3.99481E-05
6.04257E-06
-3.07164E-05
-6.26078E-05
-7.85535E-05
-8.14069E-05
-7.9057E-05
-7.63714E-05
-7.33501E-05
-6.79789E-05
-5.92508E-05
-4.68299E-05
-3.17235E-05
-1.49386E-05
2.51774E-06
2.19882E-05
4.88441E-05
7.75464E-05
8.97993E-05
7.2343E-05
4.0116E-05
2.13169E-05
1.71206E-05
1.2253E-05
-1.67849E-07
-2.06455E-05
-4.38086E-05
-5.75723E-05
-5.55581E-05
-4.14588E-05
-2.19882E-05
-1.24208E-05
-9.56741E-06
2.85344E-06
2.48417E-05
4.64942E-05
6.19364E-05
6.16007E-05
5.35439E-05
5.57259E-05
7.36858E-05
9.38277E-05
0.000103563
0.000101884
9.03029E-05
6.66362E-05
4.61585E-05
4.54871E-05
6.22721E-05
8.52674E-05
0.000101884
0.000109606
0.000115816
0.000117327
0.00010222
6.96574E-05
3.07164E-05
-1.05745E-05
-4.81727E-05
-7.26787E-05
-7.83856E-05
-7.33501E-05
-6.81468E-05
-6.27756E-05
-5.95865E-05
-6.81468E-05
-9.131E-05
-0.000113298
-0.000121019
-0.000112627
-9.4667E-05
-7.87213E-05
-6.73075E-05
-5.1194E-05
-2.36667E-05
6.54612E-06
3.57519E-05
6.66362E-05
9.44991E-05
0.000106249
9.81918E-05
8.14069E-05
7.20073E-05
6.83146E-05
6.52934E-05
6.21042E-05
5.32082E-05
3.60876E-05
1.25887E-05
-1.2253E-05
-3.08843E-05
-4.38086E-05
-5.32082E-05
-5.4551E-05
-4.24659E-05
-2.01419E-05
5.70687E-06
2.93736E-05
4.88441E-05
6.41184E-05
6.49577E-05
5.08583E-05
2.7863E-05
7.04967E-06
-3.18914E-06
-7.72107E-06
-1.49386E-05
-2.56809E-05
-3.40734E-05
-3.70947E-05
-3.59197E-05
-4.04517E-05
-5.30404E-05
-6.4622E-05
-6.02579E-05
-3.84375E-05
3.86053E-06
5.28725E-05
9.08064E-05
0.000114473
0.000130083
0.000143679
0.000154925
0.000158785
0.000144015
0.000110613
7.31823E-05
4.73335E-05
3.13878E-05
1.49386E-05
-1.17494E-06
-1.82956E-05
-4.93477E-05
-8.50996E-05
-0.000103899
-0.000103899
-9.95346E-05
-0.000108263
-0.000131258
-0.000150729
-0.000155093
-0.000143847
-0.000124376
-0.000104906
-8.81208E-05
-6.16007E-05
-1.17494E-05
5.82437E-05
0.000125719
0.00017641
0.000203601
0.000201251
0.000170703
0.000125216
8.27497E-05
5.35439E-05
2.40024E-05
-9.23171E-06
-2.90379E-05
-2.6688E-05
-3.35698E-06
3.50805E-05
8.10712E-05
0.000129412
0.000166674
0.00018732
0.00018883
0.000175738
0.000157778
0.000132769
9.98703E-05
6.99931E-05
4.0116E-05
6.88182E-06
-2.83665E-05
-5.94186E-05
-8.19104E-05
-9.41634E-05
-0.000100542
-0.000107088
-0.000113634
-0.000118669
-0.000116991
-9.95346E-05
-6.96574E-05
-3.18914E-05
3.86053E-06
2.51774E-05
3.3402E-05
2.65202E-05
4.19623E-06
-2.63523E-05
-6.54612E-05
-0.000113802
-0.000153582
-0.000175067
-0.00018027
-0.000168353
-0.000148547
-0.000127901
-9.91989E-05
-4.95155E-05
1.86313E-05
8.7953E-05
0.000144854
0.000177752
0.000185809
0.000178759
0.000163485
0.000137133
0.000109773
8.84565E-05
6.76432E-05
4.66621E-05
3.47448E-05
3.37377E-05
3.91089E-05
4.04517E-05
3.87732E-05
4.53193E-05
6.41184E-05
8.2414E-05
9.63455E-05
0.000115984
0.00013579
0.000140154
0.000135454
0.000127901
0.000109102
6.99931E-05
1.59457E-05
-3.54162E-05
-7.2343E-05
-0.000100206
-0.000127062
-0.000154925
-0.000178256
-0.000184131
-0.000167681
-0.000141161
-0.000112627
-8.92958E-05
-7.67071E-05
-6.05936E-05
-2.60166E-05
1.59457E-05
5.82437E-05
9.71847E-05
0.000127901
0.00014049
0.000126055
9.98703E-05
8.44282E-05
6.79789E-05
3.70947E-05
-3.52483E-06
-4.49836E-05
-6.8986E-05
-5.69009E-05
-1.82956E-05
2.13169E-05
6.29435E-05
0.000111955
0.000143343
0.000134615
9.75204E-05
4.95155E-05
-6.37827E-06
-7.10002E-05
-0.000141665
-0.000202594
-0.0002365
-0.00023801
-0.000221729
-0.000203098
-0.000172045
-0.000113298
-2.23239E-05
8.84565E-05
0.000205783
0.000315389
0.000381018
0.00038085
0.000336538
0.000282155
0.000221729
0.000155261
8.84565E-05
2.65202E-05
-2.83665E-05
-6.96574E-05
-9.51705E-05
-9.88632E-05
-7.93927E-05
-5.05226E-05
-2.1149E-05
8.39246E-06
3.87732E-05
6.63005E-05
7.40215E-05
6.07614E-05
3.91089E-05
1.79599E-05
5.03548E-07
-2.38346E-05
-5.94186E-05
-9.44991E-05
-0.000119341
-0.000139483
-0.00016936
-0.000197391
-0.000194537
-0.000169863
-0.000139147
-9.93667E-05
-4.96834E-05
-1.25887E-05
2.51774E-06
1.99741E-05
4.68299E-05
6.36149E-05
6.93217E-05
7.06645E-05
5.32082E-05
1.79599E-05
-3.18914E-06
5.70687E-06
3.47448E-05
7.83856E-05
0.000138476
0.000209308
0.000273091
0.000297261
0.000274433
0.000231464
0.000184131
0.000133776
8.29175E-05
3.13878E-05
-2.50095E-05
-8.50996E-05
-0.000135119
-0.000176745
-0.000221393
-0.000259159
-0.000269734
-0.000247913
-0.000204776
-0.000154757
-9.98703E-05
-3.30663E-05
4.448E-05
0.000109606
0.000148211
0.000159457
0.000139483
9.21492E-05
3.47448E-05
-1.64492E-05
-5.25368E-05
-6.86503E-05
-7.26787E-05
-7.40215E-05
-6.79789E-05
-5.69009E-05
-4.91798E-05
-5.35439E-05
-6.56291E-05
-6.63005E-05
-5.52224E-05
-5.7908E-05
-7.20073E-05
-5.53903E-05
2.51774E-06
7.2343E-05
0.000123033
0.000132769
0.000105577
7.13359E-05
5.03548E-05
3.72625E-05
3.91089E-05
8.03998E-05
0.000159625
0.000250263
0.000332845
0.000382864
0.000380179
0.000339559
0.00028014
0.000219043
0.000166674
9.91989E-05
-1.42672E-05
-0.00014519
-0.000246738
-0.000311696
-0.000362219
-0.000407874
-0.000439429
-0.000452354
-0.000456382
-0.00044715
-0.000411902
-0.000314717
-0.000138979
8.87922E-05
0.000308675
0.000461753
0.000540978
0.000563134
0.000532921
0.000472496
0.000399313
0.000323445
0.000259663
0.000217365
0.000185138
0.000143511
7.36858E-05
-2.40024E-05
-0.000103227
-0.00014049
-0.000152743
-0.000160967
-0.000174228
-0.000193362
-0.0002224
-0.000256809
-0.000278462
-0.000281315
-0.000250935
-0.000184131
-9.38277E-05
4.53193E-06
9.14778E-05
0.000149218
0.000185809
0.000212665
0.000225422
0.000228107
0.000215351
0.000172381
8.77851E-05
-1.4435E-05
-9.95346E-05
-0.000145525
-0.000153582
-0.000124376
-8.34211E-05
-6.26078E-05
-7.75464E-05
-0.000116655
-0.000158785
-0.00018497
-0.000183291
-0.000149386
-8.92958E-05
-7.38537E-06
8.64424E-05
0.000177752
0.000254963
0.000311025
0.000340566
0.000337545
0.000297261
0.000232136
0.000151568
6.27756E-05
-1.09102E-05
-6.64683E-05
-0.000128573
-0.000198062
-0.000247578
-0.00027628
-0.000299275
-0.00032076
-0.000320088
-0.000270741
-0.000178927
-5.92508E-05
8.56031E-05
0.000227436
0.000323278
0.000371786
0.000385885
0.000348287
0.000276448
0.000203098
0.000137972
7.70428E-05
2.29953E-05
-2.06455E-05
-5.18654E-05
-7.72107E-05
-9.60098E-05
-9.58419E-05
-7.16716E-05
-3.84375E-05
-7.88891E-06
1.86313E-05
1.42672E-05
-4.448E-05
-0.000142504
-0.000242878
-0.000332845
-0.000395789
-0.00041912
-0.000412741
-0.000375479
-0.000308339
-0.000217197
-0.000102388
3.60876E-05
0.000192187
0.000354162
0.000492638
0.00057052
0.000579919
0.000552728
0.000516808
0.00047837
0.000428519
0.000349966
0.000238849
0.000106584
-1.94705E-05
-0.000107927
-0.000156771
-0.000183627
-0.000193698
-0.000176913
-0.000142672
-0.00010927
-8.5771E-05
-7.08324E-05
-6.02579E-05
-6.09293E-05
-7.06645E-05
-8.10712E-05
-9.03029E-05
-9.86954E-05
-9.98703E-05
-9.71847E-05
-9.6849E-05
-9.93667E-05
-0.000105577
-0.000107927
-0.000101045
-9.24849E-05
-8.52674E-05
-5.25368E-05
1.39315E-05
9.31563E-05
0.000166339
0.000214679
0.0002271
0.00020293
0.000162814
0.000115648
7.46929E-05
6.76432E-05
9.11421E-05
0.000123369
0.000137133
0.000121691
8.30854E-05
4.17945E-05
4.19623E-06
-3.03807E-05
-5.53903E-05
-6.74754E-05
-7.95605E-05
-9.58419E-05
-0.000114473
-0.000132769
-0.000139315
-0.000129412
-0.000103899
-6.32792E-05
-2.06455E-05
-2.85344E-06
-2.34989E-06
-9.56741E-06
-3.86053E-05
-8.50996E-05
-0.00012639
-0.000154253
-0.000174228
-0.000177417
-0.000149889
-8.2414E-05
1.1078E-05
9.85275E-05
0.000154253
0.000173556
0.000170031
0.000166339
0.000164828
0.000153246
0.000132769
0.000115984
9.58419E-05
6.1265E-05
2.03098E-05
-1.4435E-05
-3.42412E-05
-5.15297E-05
-7.2343E-05
-8.74495E-05
-9.61776E-05
-8.97993E-05
-8.19104E-05
-0.000103227
-0.000127733
-0.000122866
-8.61067E-05
-3.50805E-05
8.22461E-06
3.37377E-05
2.93736E-05
1.67849E-07
-7.88891E-06
3.97803E-05
0.000144854
0.00027158
0.000351308
0.000343587
0.000268391
0.000184298
0.000130419
0.000108095
9.83597E-05
9.48348E-05
8.97993E-05
6.19364E-05
2.34989E-06
-6.22721E-05
-9.14778E-05
-6.83146E-05
1.17494E-06
8.50996E-05
0.000141497
0.000157443
0.000146868
0.000121859
8.5771E-05
5.42153E-05
2.88701E-05
1.17494E-06
-1.8967E-05
-1.96384E-05
-1.7792E-05
-3.8941E-05
-7.73785E-05
-0.000116487
-0.00014284
-0.000157778
-0.000179095
-0.00020763
-0.000223407
-0.00020444
-0.000141665
-4.71656E-05
5.08583E-05
0.000126055
0.000167346
0.000182452
0.000177752
0.000160632
0.000138811
0.000106249
5.94186E-05
3.35698E-07
-6.41184E-05
-0.000117998
-0.000150393
-0.000162814
-0.000155261
-0.000124712
-8.34211E-05
-4.64942E-05
-1.46029E-05
1.79599E-05
5.95865E-05
0.000114977
0.000168856
0.00020528
0.000208637
0.000163653
7.9057E-05
-1.51064E-06
-5.99222E-05
-0.000103059
-0.000125719
-0.000113634
-6.42863E-05
-4.86763E-06
3.6759E-05
6.009E-05
7.20073E-05
7.50286E-05
7.77142E-05
7.50286E-05
5.60616E-05
3.3402E-05
2.53452E-05
1.49386E-05
-9.56741E-06
-3.64233E-05
-6.49577E-05
-0.000112963
-0.000170871
-0.0002177
-0.000250599
-0.000276448
-0.000292393
-0.000297932
-0.0002981
-0.000282994
-0.000230793
-0.000132097
6.21042E-06
0.000154589
0.000272755
0.000353994
0.000418616
0.000466453
0.000477867
0.000448157
0.000393606
0.000330159
0.000257313
0.000162142
5.33761E-05
-3.59197E-05
-8.34211E-05
-0.000108263
-0.000140322
-0.000176913
-0.00020444
-0.00021384
-0.000212665
-0.000214679
-0.000214008
-0.000207294
-0.000196551
-0.000175235
-0.00013109
-7.53643E-05
-2.40024E-05
1.29244E-05
4.04517E-05
7.33501E-05
0.00010692
0.000139315
0.000180438
0.000225422
0.000272419
0.00031136
0.000318746
0.000291554
0.00026067
0.000240696
0.000229786
0.000219379
0.000181445
0.000105577
1.52743E-05
-6.66362E-05
-0.000133104
-0.000175067
-0.000178088
-0.000129412
-4.85084E-05
2.73594E-05
7.20073E-05
8.34211E-05
7.6875E-05
6.14328E-05
4.2298E-05
2.26596E-05
3.52483E-06
-1.76242E-05
-3.70947E-05
-5.22011E-05
-6.66362E-05
-7.53643E-05
-6.94896E-05
-4.91798E-05
-2.73594E-05
-2.08133E-05
-3.18914E-05
-4.85084E-05
-5.6733E-05
-5.40475E-05
-4.86763E-05
-4.54871E-05
-4.31373E-05
-4.14588E-05
-4.09552E-05
-3.94446E-05
-3.77661E-05
-3.47448E-05
-3.20592E-05
-3.17235E-05
-3.03807E-05
-2.58488E-05
-2.16526E-05
-2.03098E-05
-2.36667E-05
-2.90379E-05
-2.97093E-05
-2.70237E-05
-3.10521E-05
-4.28016E-05
-5.18654E-05
-5.65652E-05
-6.05936E-05
-6.07614E-05
-5.20333E-05
-4.19623E-05
-3.50805E-05
-1.87991E-05
7.04967E-06
3.57519E-05
6.73075E-05
9.65133E-05
0.000113634
0.000118669
0.000102724
5.87472E-05
-1.0071E-06
-5.94186E-05
-0.000110948
-0.000150561
-0.00017171
-0.000169863
-0.000141329
-8.64424E-05
-1.25887E-05
6.29435E-05
0.00013109
0.000193194
0.000250095
0.000280476
0.000273762
0.000245563
0.000213672
0.000181109
0.000141833
0.000100206
5.95865E-05
2.7863E-05
4.19623E-06
-1.54421E-05
-3.28985E-05
-4.51514E-05
-4.81727E-05
-4.64942E-05
-5.13619E-05
-6.29435E-05
-6.99931E-05
-6.21042E-05
-3.17235E-05
1.82956E-05
7.70428E-05
0.000125383
0.000144854
0.000133776
0.000111284
8.37568E-05
4.69978E-05
-1.0071E-06
-5.35439E-05
-0.000113466
-0.00017406
-0.000211658
-0.000219043
-0.000212497
-0.000196887
-0.000153414
-7.43572E-05
2.29953E-05
0.000100206
0.00013579
0.000156268
0.000189166
0.000223072
0.000241535
0.000242542
0.000232471
0.000211994
0.000172381
0.000115648
5.80758E-05
1.86313E-05
-1.17494E-06
-1.84634E-06
7.55322E-06
1.02388E-05
-2.34989E-06
-2.29953E-05
-3.6759E-05
-4.26337E-05
-4.24659E-05
-4.14588E-05
-4.58228E-05
-5.38796E-05
-6.27756E-05
-7.20073E-05
-7.67071E-05
-7.15038E-05
-5.48867E-05
-3.35698E-05
-1.1078E-05
9.73526E-06
2.93736E-05
3.96124E-05
2.50095E-05
-8.89601E-06
-4.73335E-05
-8.14069E-05
-0.000105913
-0.000113298
-0.000102556
-9.14778E-05
-8.40925E-05
-6.81468E-05
-3.99481E-05
-5.70687E-06
2.3331E-05
3.37377E-05
2.40024E-05
1.47707E-05
1.84634E-05
3.64233E-05
6.22721E-05
8.20783E-05
8.27497E-05
6.96574E-05
5.89151E-05
5.72366E-05
5.69009E-05
4.81727E-05
3.30663E-05
1.82956E-05
7.88891E-06
-5.03548E-07
-8.22461E-06
-9.56741E-06
-3.18914E-06
5.53902E-06
1.52743E-05
2.6688E-05
3.84375E-05
4.54871E-05
5.05226E-05
5.15297E-05
5.05226E-05
4.75013E-05
4.07874E-05
3.13878E-05
2.13169E-05
1.12459E-05
2.51774E-06
-6.21042E-06
-1.71206E-05
-2.93736E-05
-3.30663E-05
-2.63523E-05
-1.46029E-05
-4.86763E-06
-6.54612E-06
-1.84634E-05
-3.03807E-05
-3.92767E-05
-3.97803E-05
-3.28985E-05
-2.43381E-05
-1.99741E-05
-1.42672E-05
-1.67849E-06
1.42672E-05
2.7863E-05
4.14588E-05
5.52224E-05
5.89151E-05
5.99222E-05
6.88182E-05
8.44282E-05
9.38277E-05
9.4667E-05
8.47639E-05
6.32792E-05
3.3402E-05
1.05745E-05
8.56031E-06
7.88891E-06
-8.22461E-06
-3.37377E-05
-5.6733E-05
-7.77142E-05
-9.61776E-05
-9.83597E-05
-7.83856E-05
-4.58228E-05
-1.64492E-05
3.18914E-06
2.40024E-05
4.75013E-05
6.56291E-05
8.52674E-05
0.000103899
0.000110613
0.000109606
0.000108934
9.63455E-05
6.59648E-05
2.80308E-05
-6.54612E-06
-3.30663E-05
-5.1194E-05
-5.22011E-05
-2.73594E-05
9.23171E-06
4.14588E-05
5.70687E-05
5.25368E-05
3.96124E-05
2.60166E-05
6.21042E-06
-1.79599E-05
-3.49126E-05
-4.11231E-05
-4.36408E-05
-4.58228E-05
-4.41443E-05
-3.77661E-05
-2.83665E-05
-1.46029E-05
7.88891E-06
3.23949E-05
5.22011E-05
6.93217E-05
7.93927E-05
7.60357E-05
6.26078E-05
4.81727E-05
3.64233E-05
2.97093E-05
2.88701E-05
3.13878E-05
2.87022E-05
1.72885E-05
3.86053E-06
-4.53193E-06
-7.72107E-06
-6.88182E-06
-5.53902E-06
-5.87472E-06
-6.21042E-06
-5.87472E-06
-1.51064E-06
4.86763E-06
7.21752E-06
7.21752E-06
6.88182E-06
7.21752E-06
5.70687E-06
1.17494E-06
-3.52483E-06
-7.21752E-06
-9.56741E-06
-1.29244E-05
-1.76242E-05
-1.93027E-05
-1.82956E-05
-1.76242E-05
-1.71206E-05
-1.81277E-05
-1.98062E-05
-2.50095E-05
-3.64233E-05
-4.68299E-05
-5.42153E-05
-5.65652E-05
-5.53903E-05
-5.25368E-05
-4.64942E-05
-3.72625E-05
-2.26596E-05
1.34279E-06
2.75273E-05
4.68299E-05
6.3447E-05
7.20073E-05
6.74754E-05
5.62295E-05
4.0116E-05
2.26596E-05
1.25887E-05
1.59457E-05
3.32342E-05
6.16007E-05
9.28206E-05
0.000119341
0.000136461
0.000140154
0.000128405
0.000105241
7.80499E-05
6.05936E-05
5.06905E-05
2.93736E-05
5.03548E-07
-2.29953E-05
-3.81018E-05
-4.73335E-05
-5.28725E-05
-5.65652E-05
-5.55581E-05
-4.48157E-05
-2.76951E-05
-1.02388E-05
1.05745E-05
3.81018E-05
6.76432E-05
9.38277E-05
0.000109102
0.000108598
9.71847E-05
8.37568E-05
6.84825E-05
4.28016E-05
1.25887E-05
-1.46029E-05
-3.45769E-05
-4.43122E-05
-4.0116E-05
-3.0045E-05
-2.16526E-05
-1.81277E-05
-1.71206E-05
-1.29244E-05
-1.04067E-05
-1.49386E-05
-2.23239E-05
-2.97093E-05
-3.81018E-05
-4.2298E-05
-4.21302E-05
-4.19623E-05
-4.31373E-05
-4.64942E-05
-4.81727E-05
-4.54871E-05
-4.06195E-05
-3.0045E-05
-1.62814E-05
-4.86763E-06
7.55322E-06
2.16526E-05
3.23949E-05
4.17945E-05
5.15297E-05
5.6733E-05
5.28725E-05
4.59907E-05
3.91089E-05
3.17235E-05
2.61845E-05
2.19882E-05
1.91348E-05
1.59457E-05
1.09102E-05
6.88182E-06
5.70687E-06
5.87472E-06
5.03548E-06
3.86053E-06
3.86053E-06
5.20333E-06
9.06386E-06
1.30922E-05
1.64492E-05
2.13169E-05
2.60166E-05
2.85344E-05
3.07164E-05
3.08843E-05
2.43381E-05
1.32601E-05
5.87472E-06
1.84634E-06
-2.85344E-06
-5.53902E-06
-3.52483E-06
-1.51064E-06
-1.51064E-06
-3.52483E-06
-6.21042E-06
-4.69978E-06
-1.0071E-06
8.39246E-07
1.34279E-06
2.51774E-06
4.53193E-06
6.54612E-06
9.56741E-06
1.39315E-05
1.98062E-05
2.53452E-05
2.26596E-05
1.17494E-05
3.52483E-06
3.52483E-06
7.88891E-06
8.22461E-06
6.88182E-06
4.53193E-06
-4.19623E-06
-1.57778E-05
-2.29953E-05
-2.29953E-05
-1.02388E-05
1.29244E-05
3.07164E-05
3.60876E-05
3.74304E-05
3.60876E-05
2.87022E-05
2.40024E-05
2.80308E-05
4.07874E-05
5.01869E-05
4.68299E-05
2.80308E-05
-1.17494E-06
-2.97093E-05
-5.05226E-05
-5.47189E-05
-3.74304E-05
-3.35698E-07
4.95155E-05
9.61776E-05
0.000122698
0.00012874
0.000126726
0.000124041
0.000112627
9.44991E-05
7.63714E-05
5.4551E-05
2.90379E-05
5.70687E-06
-1.15816E-05
-2.16526E-05
-2.6688E-05
-2.70237E-05
-1.99741E-05
-1.29244E-05
-1.04067E-05
-9.56741E-06
-1.09102E-05
-1.37636E-05
-1.69528E-05
-1.86313E-05
-2.03098E-05
-1.8967E-05
-1.561E-05
-1.09102E-05
-6.21042E-06
-2.18204E-06
3.86053E-06
9.73526E-06
1.20851E-05
1.14137E-05
1.0071E-05
7.88891E-06
8.39246E-06
9.23171E-06
7.88891E-06
5.20333E-06
3.52483E-06
3.69268E-06
5.87472E-06
5.03548E-06
2.34989E-06
2.34989E-06
1.51064E-06
-1.17494E-06
-4.86763E-06
-8.56031E-06
-1.04067E-05
-7.88891E-06
-4.53193E-06
-4.36408E-06
-4.86763E-06
-2.18204E-06
1.0071E-06
3.18914E-06
6.04257E-06
6.88182E-06
6.88182E-06
4.19623E-06
5.53902E-06
9.90311E-06
1.35958E-05
1.39315E-05
1.35958E-05
1.40993E-05
1.49386E-05
1.561E-05
1.561E-05
1.46029E-05
1.39315E-05
1.24208E-05
1.32601E-05
1.24208E-05
1.05745E-05
1.25887E-05
1.32601E-05
1.30922E-05
1.42672E-05
1.46029E-05
1.40993E-05
1.19173E-05
1.2253E-05
1.29244E-05
1.0071E-05
6.21042E-06
5.20333E-06
7.88891E-06
1.39315E-05
1.86313E-05
1.82956E-05
1.19173E-05
3.86053E-06
-5.03548E-07
-2.85344E-06
-5.20333E-06
-7.04967E-06
-8.72816E-06
-1.02388E-05
-1.19173E-05
-1.39315E-05
-1.59457E-05
-1.81277E-05
-1.87991E-05
-1.561E-05
-6.88182E-06
6.37827E-06
2.26596E-05
4.06195E-05
5.6733E-05
6.84825E-05
7.63714E-05
8.34211E-05
9.0135E-05
9.04707E-05
8.40925E-05
7.63714E-05
6.83146E-05
6.009E-05
5.25368E-05
4.11231E-05
2.6688E-05
1.39315E-05
5.70687E-06
1.51064E-06
-3.52483E-06
-7.55322E-06
-7.55322E-06
-5.87472E-06
-6.37827E-06
-7.21752E-06
-6.54612E-06
-1.51064E-06
7.21752E-06
1.37636E-05
1.72885E-05
1.71206E-05
1.29244E-05
7.88891E-06
3.86053E-06
2.51774E-06
2.51774E-06
5.03548E-07
-6.54612E-06
-1.79599E-05
-2.97093E-05
-3.77661E-05
-3.72625E-05
-3.17235E-05
-2.61845E-05
-1.99741E-05
-1.27565E-05
-6.88182E-06
-1.84634E-06
-6.71397E-07
-1.34279E-06
-8.39246E-07
0
3.18914E-06
1.09102E-05
1.99741E-05
2.71916E-05
3.07164E-05
3.27306E-05
3.87732E-05
4.38086E-05
4.41443E-05
4.19623E-05
3.97803E-05
3.81018E-05
3.57519E-05
3.0045E-05
2.29953E-05
1.81277E-05
1.27565E-05
9.90311E-06
9.73526E-06
8.89601E-06
1.05745E-05
1.49386E-05
1.66171E-05
1.17494E-05
4.53193E-06
-3.52483E-06
-1.25887E-05
-2.19882E-05
-2.80308E-05
-2.97093E-05
-2.73594E-05
-2.46738E-05
-2.06455E-05
-1.42672E-05
-7.88891E-06
-3.52483E-06
2.18204E-06
8.05676E-06
1.29244E-05
1.66171E-05
1.82956E-05
1.86313E-05
1.96384E-05
2.29953E-05
2.93736E-05
3.20592E-05
2.87022E-05
2.48417E-05
2.53452E-05
3.0045E-05
3.17235E-05
2.70237E-05
2.28275E-05
2.23239E-05
2.13169E-05
2.06455E-05
1.91348E-05
1.49386E-05
1.32601E-05
1.46029E-05
1.52743E-05
1.24208E-05
9.23171E-06
9.06386E-06
9.90311E-06
9.90311E-06
1.0071E-05
1.05745E-05
9.90311E-06
9.73526E-06
8.56031E-06
4.53193E-06
2.51774E-06
3.86053E-06
4.02838E-06
1.84634E-06
-2.18204E-06
-5.20333E-06
-6.54612E-06
-8.39246E-06
-1.17494E-05
-1.57778E-05
-1.84634E-05
-1.8967E-05
-1.62814E-05
-9.90311E-06
-5.20333E-06
-3.02129E-06
1.0071E-06
6.88182E-06
1.05745E-05
8.56031E-06
9.23171E-06
2.06455E-05
3.54162E-05
4.38086E-05
4.68299E-05
4.75013E-05
4.54871E-05
4.07874E-05
3.44091E-05
2.83665E-05
2.46738E-05
2.53452E-05
3.03807E-05
3.74304E-05
4.09552E-05
3.91089E-05
3.40734E-05
2.46738E-05
1.52743E-05
8.72816E-06
-6.71397E-07
-1.35958E-05
-2.19882E-05
-2.3331E-05
-1.82956E-05
-1.35958E-05
-1.1078E-05
-8.89601E-06
-9.06386E-06
-1.09102E-05
-1.09102E-05
-9.73526E-06
-5.20333E-06
5.20333E-06
2.13169E-05
4.3473E-05
6.49577E-05
7.57E-05
7.70428E-05
7.43572E-05
6.54612E-05
5.15297E-05
3.81018E-05
2.93736E-05
2.46738E-05
2.26596E-05
1.79599E-05
7.88891E-06
-1.51064E-06
-5.70687E-06
-5.70687E-06
-3.86053E-06
1.67849E-07
6.88182E-06
1.25887E-05
1.29244E-05
9.90311E-06
7.38537E-06
5.53902E-06
5.03548E-06
3.69268E-06
5.03548E-07
-1.67849E-06
-6.21042E-06
-1.09102E-05
-1.30922E-05
-1.39315E-05
-1.52743E-05
-1.46029E-05
-1.15816E-05
-7.21752E-06
-3.52483E-06
-2.01419E-06
-3.69268E-06
-5.53902E-06
-7.04967E-06
-7.88891E-06
-9.73526E-06
-1.02388E-05
-9.06386E-06
-9.73526E-06
-1.2253E-05
-1.02388E-05
-5.20333E-06
-4.02838E-06
-6.71397E-06
-1.2253E-05
-1.99741E-05
-2.43381E-05
-1.8967E-05
-4.53193E-06
1.37636E-05
2.98772E-05
4.07874E-05
4.54871E-05
4.58228E-05
4.71656E-05
4.86763E-05
5.01869E-05
5.27047E-05
5.48867E-05
5.28725E-05
5.08583E-05
4.71656E-05
4.41443E-05
4.54871E-05
4.59907E-05
4.41443E-05
4.14588E-05
3.72625E-05
3.13878E-05
2.46738E-05
1.82956E-05
1.42672E-05
1.32601E-05
1.15816E-05
9.73526E-06
8.56031E-06
8.05676E-06
5.20333E-06
-5.03548E-07
-6.54612E-06
-9.90311E-06
-1.19173E-05
-1.15816E-05
-7.88891E-06
-4.36408E-06
-1.84634E-06
-1.17494E-06
-5.03548E-07
8.39246E-07
8.39246E-07
5.03548E-07
2.01419E-06
4.69978E-06
4.02838E-06
1.67849E-06
2.51774E-06
5.53902E-06
8.22461E-06
9.90311E-06
9.90311E-06
1.2253E-05
1.66171E-05
1.84634E-05
1.71206E-05
1.40993E-05
9.06386E-06
3.52483E-06
1.0071E-06
1.17494E-06
3.35698E-07
-1.67849E-06
-3.35698E-06
-2.18204E-06
1.51064E-06
2.34989E-06
0
0
1.51064E-06
2.51774E-06
2.01419E-06
2.18204E-06
6.54612E-06
1.05745E-05
1.30922E-05
1.37636E-05
1.09102E-05
6.88182E-06
8.22461E-06
1.14137E-05
1.72885E-05
2.56809E-05
3.20592E-05
3.45769E-05
3.47448E-05
3.39055E-05
3.40734E-05
3.20592E-05
2.93736E-05
2.88701E-05
2.73594E-05
2.34989E-05
2.1149E-05
2.03098E-05
1.99741E-05
1.79599E-05
1.46029E-05
1.25887E-05
1.05745E-05
7.55322E-06
5.20333E-06
3.69268E-06
2.51774E-06
2.85344E-06
4.53193E-06
4.69978E-06
2.34989E-06
-3.35698E-07
-1.67849E-06
-2.85344E-06
-2.51774E-06
-1.0071E-06
1.51064E-06
4.86763E-06
6.04257E-06
5.87472E-06
5.87472E-06
6.88182E-06
9.90311E-06
1.2253E-05
1.39315E-05
1.57778E-05
1.52743E-05
1.35958E-05
1.32601E-05
1.27565E-05
1.25887E-05
1.32601E-05
1.46029E-05
1.59457E-05
1.62814E-05
1.561E-05
1.42672E-05
1.29244E-05
1.05745E-05
1.02388E-05
1.12459E-05
9.90311E-06
7.88891E-06
8.22461E-06
8.39246E-06
8.56031E-06
8.22461E-06
4.19623E-06
-2.01419E-06
-2.34989E-06
1.17494E-06
4.19623E-06
5.70687E-06
2.34989E-06
-5.70687E-06
-1.35958E-05
-1.29244E-05
-6.88182E-06
-2.85344E-06
8.39246E-07
6.54612E-06
1.05745E-05
1.561E-05
2.13169E-05
2.6688E-05
3.10521E-05
3.27306E-05
3.20592E-05
3.27306E-05
3.42412E-05
3.60876E-05
3.6759E-05
3.69268E-05
3.96124E-05
4.63264E-05
5.15297E-05
5.20333E-05
4.91798E-05
4.21302E-05
3.13878E-05
2.19882E-05
1.54421E-05
8.56031E-06
4.19623E-06
1.0071E-06
5.03548E-07
3.52483E-06
5.87472E-06
6.37827E-06
5.03548E-06
2.85344E-06
2.18204E-06
3.86053E-06
5.53902E-06
7.21752E-06
1.05745E-05
1.05745E-05
6.88182E-06
2.34989E-06
2.18204E-06
3.86053E-06
4.53193E-06
3.18914E-06
-5.03548E-07
-5.20333E-06
-7.21752E-06
-7.72107E-06
-9.73526E-06
-1.12459E-05
-1.12459E-05
-8.56031E-06
-4.86763E-06
-5.03548E-07
1.34279E-06
1.0071E-06
1.51064E-06
1.51064E-06
1.34279E-06
2.51774E-06
4.53193E-06
5.03548E-06
5.87472E-06
7.21752E-06
7.88891E-06
6.54612E-06
3.86053E-06
2.85344E-06
1.51064E-06
-1.51064E-06
-4.19623E-06
-3.52483E-06
-5.03548E-07
1.0071E-06
-5.03548E-07
-1.17494E-06
8.39246E-07
2.18204E-06
5.20333E-06
1.35958E-05
2.56809E-05
3.47448E-05
3.69268E-05
3.57519E-05
3.44091E-05
3.20592E-05
2.93736E-05
2.90379E-05
3.18914E-05
3.3402E-05
3.03807E-05
2.4506E-05
2.03098E-05
2.09812E-05
2.18204E-05
1.84634E-05
1.52743E-05
1.561E-05
1.54421E-05
1.4435E-05
1.19173E-05
7.88891E-06
-5.03548E-07
-1.39315E-05
-1.99741E-05
-1.76242E-05
-1.25887E-05
-8.22461E-06
-4.19623E-06
1.0071E-06
7.88891E-06
1.32601E-05
1.20851E-05
8.56031E-06
7.88891E-06
1.09102E-05
1.66171E-05
2.03098E-05
2.09812E-05
2.13169E-05
2.19882E-05
2.4506E-05
3.0045E-05
3.3402E-05
3.44091E-05
3.45769E-05
3.3402E-05
3.20592E-05
3.02129E-05
2.73594E-05
2.63523E-05
2.87022E-05
2.98772E-05
2.87022E-05
2.70237E-05
2.40024E-05
2.21561E-05
1.99741E-05
1.62814E-05
1.32601E-05
1.25887E-05
1.05745E-05
9.90311E-06
7.21752E-06
4.19623E-06
2.51774E-06
8.39246E-07
1.17494E-06
3.52483E-06
4.19623E-06
4.19623E-06
5.20333E-06
6.54612E-06
7.88891E-06
1.02388E-05
1.05745E-05
1.05745E-05
1.05745E-05
7.04967E-06
1.51064E-06
-2.51774E-06
-6.21042E-06
-9.23171E-06
-1.30922E-05
-1.76242E-05
-1.7792E-05
-1.52743E-05
-1.19173E-05
-7.04967E-06
-3.52483E-06
-3.18914E-06
-2.51774E-06
-8.39246E-07
1.17494E-06
3.35698E-06
5.20333E-06
7.55322E-06
1.04067E-05
1.46029E-05
1.71206E-05
1.46029E-05
8.56031E-06
5.20333E-06
5.20333E-06
4.53193E-06
3.35698E-07
-5.20333E-06
-8.89601E-06
-5.87472E-06
3.02129E-06
1.39315E-05
2.18204E-05
2.6688E-05
2.92058E-05
3.30663E-05
3.44091E-05
3.15557E-05
2.6688E-05
2.23239E-05
1.84634E-05
1.61135E-05
1.82956E-05
2.40024E-05
2.76951E-05
2.6688E-05
2.43381E-05
2.40024E-05
2.3331E-05
2.06455E-05
1.46029E-05
6.88182E-06
2.18204E-06
-3.02129E-06
-1.1078E-05
-1.57778E-05
-1.2253E-05
-1.67849E-07
1.93027E-05
4.0116E-05
5.4551E-05
6.27756E-05
6.6804E-05
6.59648E-05
5.95865E-05
4.68299E-05
3.30663E-05
2.40024E-05
1.99741E-05
1.8967E-05
1.94705E-05
1.49386E-05
8.89601E-06
5.53902E-06
3.52483E-06
2.68559E-06
2.51774E-06
3.52483E-06
5.20333E-06
6.88182E-06
5.20333E-06
1.67849E-07
-3.52483E-06
-4.19623E-06
-2.18204E-06
1.17494E-06
3.52483E-06
3.18914E-06
1.0071E-06
-3.02129E-06
-3.02129E-06
-8.39246E-07
2.18204E-06
2.18204E-06
-5.03548E-07
-8.39246E-07
2.34989E-06
3.18914E-06
8.39246E-07
-1.51064E-06
-2.68559E-06
-4.69978E-06
-8.39246E-06
-1.15816E-05
-1.15816E-05
-8.89601E-06
-6.21042E-06
-3.35698E-06
-8.39246E-07
2.18204E-06
3.02129E-06
3.52483E-06
4.53193E-06
6.54612E-06
8.56031E-06
8.72816E-06
8.89601E-06
1.12459E-05
1.46029E-05
1.561E-05
1.72885E-05
2.06455E-05
2.43381E-05
2.73594E-05
2.6688E-05
2.34989E-05
2.06455E-05
1.99741E-05
1.99741E-05
1.74563E-05
1.37636E-05
8.39246E-06
2.34989E-06
5.03548E-07
3.86053E-06
8.22461E-06
8.56031E-06
7.88891E-06
7.21752E-06
7.88891E-06
8.39246E-06
8.39246E-06
8.89601E-06
1.32601E-05
1.76242E-05
1.99741E-05
2.06455E-05
2.08133E-05
2.13169E-05
2.13169E-05
2.1149E-05
1.81277E-05
1.32601E-05
1.17494E-05
1.35958E-05
1.72885E-05
1.67849E-05
1.1078E-05
4.19623E-06
8.39246E-07
-1.34279E-06
-3.86053E-06
-7.21752E-06
-1.2253E-05
-1.62814E-05
-1.09102E-05
2.18204E-06
1.42672E-05
2.31632E-05
2.40024E-05
2.13169E-05
1.91348E-05
1.57778E-05
1.30922E-05
1.15816E-05
1.40993E-05
2.13169E-05
2.43381E-05
2.13169E-05
1.87991E-05
2.24918E-05
2.90379E-05
3.50805E-05
3.8941E-05
3.94446E-05
3.64233E-05
3.27306E-05
3.08843E-05
2.92058E-05
2.6688E-05
2.34989E-05
2.06455E-05
1.69528E-05
1.42672E-05
1.35958E-05
1.46029E-05
1.52743E-05
1.69528E-05
1.66171E-05
1.561E-05
1.30922E-05
6.71397E-06
-5.03548E-07
-8.39246E-06
-1.91348E-05
-2.76951E-05
-2.83665E-05
-2.43381E-05
-1.93027E-05
-1.76242E-05
-2.08133E-05
-2.34989E-05
-2.40024E-05
-2.40024E-05
-2.43381E-05
-1.98062E-05
-1.09102E-05
-2.85344E-06
1.17494E-06
3.86053E-06
9.56741E-06
1.86313E-05
2.90379E-05
3.74304E-05
4.28016E-05
4.9012E-05
5.60616E-05
5.7908E-05
5.35439E-05
4.53193E-05
3.50805E-05
2.93736E-05
2.85344E-05
3.03807E-05
3.69268E-05
4.53193E-05
5.13619E-05
5.52224E-05
5.65652E-05
5.28725E-05
4.48157E-05
3.30663E-05
2.36667E-05
1.99741E-05
1.8967E-05
1.66171E-05
1.32601E-05
7.88891E-06
1.17494E-06
-5.53902E-06
-1.15816E-05
-1.62814E-05
-1.71206E-05
-1.86313E-05
-2.01419E-05
-1.79599E-05
-1.46029E-05
-1.15816E-05
-7.72107E-06
-3.52483E-06
5.03548E-07
1.67849E-06
-4.36408E-06
-1.0071E-05
-1.1078E-05
-8.89601E-06
-5.70687E-06
-5.53902E-06
-7.04967E-06
-9.56741E-06
-1.15816E-05
-9.73526E-06
-4.53193E-06
3.52483E-06
1.19173E-05
1.67849E-05
1.84634E-05
1.93027E-05
2.23239E-05
2.31632E-05
2.18204E-05
2.09812E-05
1.82956E-05
1.71206E-05
1.86313E-05
1.72885E-05
1.42672E-05
1.29244E-05
1.19173E-05
1.02388E-05
1.05745E-05
1.39315E-05
1.66171E-05
1.82956E-05
1.93027E-05
1.96384E-05
1.8967E-05
1.79599E-05
1.96384E-05
1.86313E-05
1.19173E-05
4.36408E-06
-4.19623E-06
-1.12459E-05
-1.32601E-05
-1.29244E-05
-1.25887E-05
-1.19173E-05
-9.73526E-06
-9.90311E-06
-1.12459E-05
-1.1078E-05
-1.09102E-05
-1.05745E-05
-9.73526E-06
-6.54612E-06
-3.35698E-06
-8.39246E-07
5.03548E-07
2.85344E-06
6.88182E-06
1.24208E-05
1.76242E-05
2.04776E-05
2.60166E-05
3.15557E-05
3.39055E-05
3.70947E-05
3.91089E-05
3.70947E-05
3.47448E-05
3.08843E-05
2.76951E-05
2.23239E-05
1.64492E-05
1.52743E-05
1.69528E-05
1.69528E-05
1.79599E-05
1.82956E-05
1.57778E-05
1.47707E-05
1.52743E-05
1.2253E-05
8.89601E-06
8.22461E-06
9.39956E-06
1.15816E-05
1.42672E-05
1.4435E-05
1.37636E-05
1.19173E-05
7.88891E-06
3.18914E-06
-1.67849E-07
1.17494E-06
4.36408E-06
6.54612E-06
9.06386E-06
8.56031E-06
-3.35698E-07
-1.09102E-05
-1.42672E-05
-9.39956E-06
-6.71397E-07
4.53193E-06
7.88891E-06
1.2253E-05
1.42672E-05
1.54421E-05
1.62814E-05
1.30922E-05
7.55322E-06
1.02388E-05
2.56809E-05
4.51514E-05
6.05936E-05
6.69719E-05
6.52934E-05
6.02579E-05
5.03548E-05
3.74304E-05
2.65202E-05
1.52743E-05
7.21752E-06
2.18204E-06
-2.85344E-06
-5.03548E-06
-2.85344E-06
2.51774E-06
8.89601E-06
1.2253E-05
1.32601E-05
1.46029E-05
1.81277E-05
2.09812E-05
2.36667E-05
2.40024E-05
2.19882E-05
2.16526E-05
2.09812E-05
1.8967E-05
1.72885E-05
1.42672E-05
9.23171E-06
5.53902E-06
3.35698E-06
2.51774E-06
3.52483E-06
6.54612E-06
8.56031E-06
8.89601E-06
7.88891E-06
7.55322E-06
7.88891E-06
8.89601E-06
8.89601E-06
7.55322E-06
5.20333E-06
4.69978E-06
5.20333E-06
5.20333E-06
4.53193E-06
-1.67849E-07
-7.88891E-06
-1.25887E-05
-1.46029E-05
-1.561E-05
-1.35958E-05
-1.05745E-05
-8.22461E-06
-7.21752E-06
-8.39246E-06
-8.22461E-06
-5.20333E-06
-5.03548E-07
5.20333E-06
1.49386E-05
2.46738E-05
3.18914E-05
3.79339E-05
4.24659E-05
4.38086E-05
4.07874E-05
3.44091E-05
2.46738E-05
1.46029E-05
6.04257E-06
-1.51064E-06
-8.89601E-06
-1.49386E-05
-1.72885E-05
-1.67849E-05
-1.561E-05
-1.40993E-05
-1.14137E-05
-5.20333E-06
4.19623E-06
1.32601E-05
2.13169E-05
2.87022E-05
3.3402E-05
3.70947E-05
4.28016E-05
4.80049E-05
4.93477E-05
4.95155E-05
4.81727E-05
4.38086E-05
3.74304E-05
2.98772E-05
2.50095E-05
2.34989E-05
2.13169E-05
1.57778E-05
9.56741E-06
5.87472E-06
6.21042E-06
5.53902E-06
1.67849E-06
1.17494E-06
2.34989E-06
2.51774E-06
2.51774E-06
1.67849E-07
0
3.69268E-06
6.04257E-06
6.37827E-06
6.71397E-06
5.20333E-06
3.69268E-06
4.36408E-06
3.86053E-06
3.69268E-06
3.86053E-06
1.51064E-06
-2.34989E-06
-3.52483E-06
-3.18914E-06
-3.02129E-06
-2.85344E-06
-2.85344E-06
-3.35698E-06
-8.39246E-07
2.18204E-06
3.18914E-06
3.52483E-06
3.52483E-06
2.18204E-06
2.51774E-06
6.54612E-06
1.05745E-05
1.19173E-05
9.90311E-06
9.23171E-06
1.1078E-05
1.25887E-05
1.37636E-05
1.64492E-05
1.64492E-05
1.46029E-05
1.24208E-05
1.24208E-05
1.32601E-05
1.24208E-05
9.23171E-06
6.54612E-06
6.54612E-06
8.89601E-06
1.05745E-05
1.19173E-05
1.39315E-05
1.4435E-05
1.19173E-05
7.21752E-06
1.84634E-06
8.39246E-07
5.20333E-06
9.73526E-06
9.90311E-06
6.54612E-06
1.67849E-06
-2.85344E-06
-4.19623E-06
-4.19623E-06
-4.53193E-06
-2.85344E-06
7.38537E-06
2.38346E-05
4.11231E-05
5.35439E-05
5.85794E-05
5.94186E-05
5.69009E-05
5.27047E-05
4.76692E-05
4.28016E-05
3.84375E-05
3.20592E-05
2.01419E-05
3.18914E-06
-1.09102E-05
-1.46029E-05
-1.14137E-05
-6.88182E-06
-1.17494E-06
4.53193E-06
9.90311E-06
1.46029E-05
1.87991E-05
2.40024E-05
2.73594E-05
2.56809E-05
2.03098E-05
1.4435E-05
7.38537E-06
-1.67849E-07
-4.36408E-06
-2.18204E-06
3.52483E-06
8.72816E-06
1.19173E-05
1.25887E-05
1.25887E-05
1.09102E-05
6.37827E-06
-5.03548E-07
-9.56741E-06
-1.42672E-05
-1.35958E-05
-1.32601E-05
-1.52743E-05
-1.69528E-05
-1.86313E-05
-1.69528E-05
-1.09102E-05
-1.34279E-06
1.19173E-05
2.63523E-05
4.06195E-05
4.76692E-05
4.61585E-05
4.09552E-05
3.23949E-05
2.28275E-05
1.39315E-05
1.02388E-05
1.25887E-05
1.82956E-05
2.46738E-05
3.03807E-05
3.47448E-05
3.87732E-05
3.91089E-05
3.45769E-05
2.90379E-05
2.34989E-05
1.7792E-05
1.19173E-05
6.54612E-06
1.67849E-06
-2.18204E-06
-4.36408E-06
-4.53193E-06
-3.69268E-06
-4.69978E-06
-7.55322E-06
-1.09102E-05
-1.12459E-05
-1.04067E-05
-7.04967E-06
-1.84634E-06
2.18204E-06
3.86053E-06
5.03548E-06
1.12459E-05
1.91348E-05
2.36667E-05
2.26596E-05
1.99741E-05
1.96384E-05
2.23239E-05
2.34989E-05
2.36667E-05
1.99741E-05
1.46029E-05
1.12459E-05
9.90311E-06
7.21752E-06
5.70687E-06
4.19623E-06
5.03548E-07
-2.85344E-06
-4.86763E-06
-8.56031E-06
-1.2253E-05
-1.52743E-05
-1.62814E-05
-1.35958E-05
-8.22461E-06
-3.35698E-07
8.22461E-06
1.52743E-05
1.93027E-05
2.03098E-05
1.98062E-05
2.09812E-05
2.26596E-05
2.43381E-05
2.60166E-05
2.46738E-05
1.8967E-05
1.12459E-05
6.88182E-06
7.21752E-06
1.15816E-05
1.76242E-05
2.13169E-05
2.18204E-05
2.13169E-05
1.93027E-05
1.79599E-05
1.49386E-05
8.22461E-06
-6.71397E-07
-8.22461E-06
-1.19173E-05
-1.14137E-05
-7.21752E-06
-2.18204E-06
4.86763E-06
1.19173E-05
1.42672E-05
1.42672E-05
1.71206E-05
2.26596E-05
2.56809E-05
2.73594E-05
3.20592E-05
4.0116E-05
4.51514E-05
4.41443E-05
3.96124E-05
3.37377E-05
2.60166E-05
1.72885E-05
1.32601E-05
1.32601E-05
1.35958E-05
1.32601E-05
1.32601E-05
9.23171E-06
3.18914E-06
1.17494E-06
3.02129E-06
4.53193E-06
6.54612E-06
5.87472E-06
5.87472E-06
7.21752E-06
9.56741E-06
1.05745E-05
1.19173E-05
1.25887E-05
1.2253E-05
1.2253E-05
1.12459E-05
9.23171E-06
8.39246E-06
8.89601E-06
1.15816E-05
1.40993E-05
1.12459E-05
6.54612E-06
5.03548E-06
6.54612E-06
1.12459E-05
1.47707E-05
1.39315E-05
1.15816E-05
9.90311E-06
7.88891E-06
4.53193E-06
1.67849E-07
-3.02129E-06
-2.85344E-06
1.84634E-06
7.21752E-06
8.22461E-06
7.21752E-06
7.04967E-06
7.21752E-06
8.56031E-06
9.90311E-06
9.90311E-06
1.04067E-05
1.24208E-05
1.52743E-05
1.51064E-05
1.12459E-05
8.89601E-06
6.88182E-06
4.53193E-06
4.36408E-06
7.55322E-06
1.17494E-05
1.19173E-05
9.73526E-06
7.88891E-06
5.20333E-06
5.03548E-07
-3.35698E-06
-6.37827E-06
-8.39246E-06
-8.05676E-06
-4.69978E-06
6.71397E-07
4.86763E-06
7.21752E-06
9.06386E-06
1.02388E-05
7.21752E-06
5.87472E-06
8.72816E-06
8.89601E-06
4.53193E-06
8.39246E-07
-1.51064E-06
-1.34279E-06
1.17494E-06
6.21042E-06
1.05745E-05
1.2253E-05
1.32601E-05
1.96384E-05
2.93736E-05
3.87732E-05
4.75013E-05
5.35439E-05
5.4551E-05
5.33761E-05
5.25368E-05
5.15297E-05
4.91798E-05
4.7837E-05
4.68299E-05
4.17945E-05
3.122E-05
2.09812E-05
1.24208E-05
2.51774E-06
-5.53902E-06
-8.56031E-06
-4.19623E-06
6.54612E-06
1.62814E-05
2.19882E-05
2.65202E-05
2.60166E-05
1.74563E-05
7.21752E-06
-2.18204E-06
-8.89601E-06
-8.56031E-06
-2.85344E-06
3.18914E-06
6.54612E-06
7.72107E-06
9.90311E-06
1.46029E-05
1.86313E-05
1.8967E-05
1.82956E-05
1.99741E-05
2.46738E-05
2.93736E-05
3.18914E-05
3.20592E-05
2.93736E-05
2.40024E-05
1.81277E-05
1.46029E-05
1.30922E-05
1.05745E-05
5.03548E-06
6.71397E-07
-3.35698E-06
-1.35958E-05
-2.53452E-05
-3.23949E-05
-3.50805E-05
-3.74304E-05
-3.70947E-05
-3.62554E-05
-3.40734E-05
-2.93736E-05
-2.31632E-05
-1.84634E-05
-1.42672E-05
-8.56031E-06
0
1.02388E-05
1.86313E-05
2.13169E-05
2.09812E-05
2.16526E-05
2.4506E-05
2.53452E-05
2.46738E-05
2.65202E-05
2.83665E-05
2.65202E-05
2.3331E-05
1.96384E-05
1.66171E-05
1.59457E-05
1.72885E-05
1.72885E-05
1.42672E-05
9.39956E-06
1.02388E-05
1.66171E-05
2.28275E-05
2.31632E-05
1.19173E-05
-7.04967E-06
-1.99741E-05
-1.96384E-05
-1.12459E-05
-2.51774E-06
5.87472E-06
1.04067E-05
1.05745E-05
9.39956E-06
1.27565E-05
2.36667E-05
4.21302E-05
6.31113E-05
8.17426E-05
8.97993E-05
8.5771E-05
7.50286E-05
6.009E-05
3.57519E-05
7.88891E-06
-1.42672E-05
-2.70237E-05
-3.47448E-05
-4.31373E-05
-5.38796E-05
-6.26078E-05
-6.74754E-05
-6.49577E-05
-5.70687E-05
-4.59907E-05
-3.3402E-05
-1.69528E-05
2.51774E-06
1.81277E-05
2.60166E-05
3.27306E-05
4.448E-05
5.62295E-05
6.49577E-05
7.03288E-05
7.13359E-05
6.96574E-05
7.03288E-05
7.16716E-05
6.79789E-05
5.84115E-05
4.61585E-05
3.5584E-05
2.90379E-05
2.26596E-05
1.71206E-05
1.42672E-05
1.59457E-05
1.99741E-05
2.19882E-05
1.79599E-05
1.05745E-05
3.86053E-06
-1.17494E-06
-3.35698E-06
-3.18914E-06
-4.53193E-06
-8.56031E-06
-1.35958E-05
-1.99741E-05
-2.53452E-05
-2.73594E-05
-2.65202E-05
-2.83665E-05
-3.25628E-05
-3.50805E-05
-3.74304E-05
-4.04517E-05
-3.96124E-05
-3.122E-05
-2.03098E-05
-9.56741E-06
2.18204E-06
1.46029E-05
3.122E-05
5.32082E-05
7.2343E-05
8.25818E-05
8.25818E-05
7.53643E-05
6.36149E-05
4.71656E-05
3.03807E-05
1.86313E-05
1.30922E-05
4.53193E-06
-6.88182E-06
-1.49386E-05
-2.08133E-05
-2.36667E-05
-1.99741E-05
-8.89601E-06
2.51774E-06
9.90311E-06
1.17494E-05
1.42672E-05
1.79599E-05
1.72885E-05
6.04257E-06
-1.04067E-05
-2.36667E-05
-3.32342E-05
-3.57519E-05
-2.97093E-05
-1.93027E-05
-9.56741E-06
1.67849E-07
1.05745E-05
1.93027E-05
2.36667E-05
2.6688E-05
3.39055E-05
4.61585E-05
5.82437E-05
6.69719E-05
7.04967E-05
6.69719E-05
6.1265E-05
6.02579E-05
6.09293E-05
5.85794E-05
5.01869E-05
3.6759E-05
2.46738E-05
1.71206E-05
1.05745E-05
2.18204E-06
-4.86763E-06
-1.39315E-05
-3.0045E-05
-4.21302E-05
-4.07874E-05
-3.40734E-05
-3.40734E-05
-3.70947E-05
-3.99481E-05
-4.46479E-05
-5.15297E-05
-5.7908E-05
-6.36149E-05
-6.49577E-05
-6.07614E-05
-5.55581E-05
-3.96124E-05
-5.53902E-06
4.64942E-05
0.000107927
0.000161303
0.00019118
0.000200916
0.000197894
0.000180438
0.000155596
0.000128069
9.95346E-05
7.13359E-05
4.33051E-05
1.82956E-05
-1.17494E-06
-1.72885E-05
-3.47448E-05
-5.18654E-05
-6.69719E-05
-7.77142E-05
-8.02319E-05
-7.45251E-05
-6.19364E-05
-4.3473E-05
-2.26596E-05
-5.53902E-06
8.05676E-06
1.69528E-05
2.09812E-05
2.13169E-05
1.69528E-05
5.20333E-06
-5.87472E-06
-1.30922E-05
-1.76242E-05
-2.13169E-05
-2.36667E-05
-2.63523E-05
-2.87022E-05
-2.75273E-05
-2.36667E-05
-2.3331E-05
-2.53452E-05
-2.50095E-05
-2.24918E-05
-1.81277E-05
-6.54612E-06
9.39956E-06
2.16526E-05
2.92058E-05
3.25628E-05
3.23949E-05
2.48417E-05
1.04067E-05
-5.03548E-06
-1.561E-05
-2.16526E-05
-2.18204E-05
-1.62814E-05
-8.39246E-06
1.17494E-06
1.49386E-05
2.3331E-05
2.1149E-05
1.72885E-05
1.76242E-05
1.8967E-05
1.81277E-05
1.39315E-05
8.39246E-06
5.87472E-06
6.21042E-06
1.02388E-05
2.29953E-05
4.21302E-05
6.16007E-05
7.62036E-05
8.77851E-05
9.71847E-05
9.78561E-05
8.91279E-05
7.63714E-05
6.16007E-05
4.59907E-05
3.23949E-05
2.09812E-05
1.14137E-05
4.02838E-06
-1.67849E-06
-8.39246E-06
-1.42672E-05
-1.81277E-05
-1.96384E-05
-1.76242E-05
-1.51064E-05
-1.30922E-05
-1.30922E-05
-1.42672E-05
-1.42672E-05
-1.32601E-05
-9.56741E-06
-3.18914E-06
8.39246E-07
2.18204E-06
3.18914E-06
4.53193E-06
6.54612E-06
1.05745E-05
1.25887E-05
1.1078E-05
1.02388E-05
1.04067E-05
1.25887E-05
1.64492E-05
1.32601E-05
8.39246E-07
-1.1078E-05
-1.81277E-05
-2.09812E-05
-2.43381E-05
-3.0045E-05
-4.17945E-05
-6.02579E-05
-7.73785E-05
-8.20783E-05
-7.13359E-05
-4.73335E-05
-1.12459E-05
2.56809E-05
5.22011E-05
6.96574E-05
8.44282E-05
0.000100206
0.000113634
0.000118837
0.000118837
0.000115984
0.00010692
9.11421E-05
7.06645E-05
4.68299E-05
2.50095E-05
1.19173E-05
6.88182E-06
5.20333E-06
2.85344E-06
-1.17494E-06
-8.89601E-06
-2.06455E-05
-2.83665E-05
-2.43381E-05
-1.30922E-05
-2.51774E-06
5.87472E-06
1.05745E-05
8.22461E-06
2.18204E-06
-2.51774E-06
-5.53902E-06
-9.23171E-06
-1.51064E-05
-1.8967E-05
-1.8967E-05
-1.561E-05
-1.25887E-05
-1.09102E-05
-6.21042E-06
5.03548E-07
1.05745E-05
1.93027E-05
2.51774E-05
3.0045E-05
3.37377E-05
3.64233E-05
3.47448E-05
3.03807E-05
2.56809E-05
2.19882E-05
1.93027E-05
1.72885E-05
1.19173E-05
4.19623E-06
-1.0071E-06
-2.51774E-06
1.51064E-06
8.05676E-06
1.32601E-05
1.40993E-05
1.4435E-05
1.561E-05
1.59457E-05
1.57778E-05
1.59457E-05
1.76242E-05
2.19882E-05
2.40024E-05
2.4506E-05
2.29953E-05
1.99741E-05
2.03098E-05
2.29953E-05
2.38346E-05
2.29953E-05
2.1149E-05
1.52743E-05
7.72107E-06
1.84634E-06
-8.39246E-07
-2.34989E-06
-3.52483E-06
-3.02129E-06
-8.39246E-07
1.0071E-06
8.39246E-07
5.03548E-07
0
2.01419E-06
6.21042E-06
9.23171E-06
1.04067E-05
1.29244E-05
1.76242E-05
2.26596E-05
2.6688E-05
2.90379E-05
3.03807E-05
2.73594E-05
1.91348E-05
7.21752E-06
-4.19623E-06
-9.56741E-06
-1.35958E-05
-1.99741E-05
-2.51774E-05
-2.48417E-05
-2.16526E-05
-1.8967E-05
-1.67849E-05
-1.64492E-05
-1.82956E-05
-1.49386E-05
-5.53902E-06
9.90311E-06
3.122E-05
5.52224E-05
7.33501E-05
7.97284E-05
7.80499E-05
7.60357E-05
6.93217E-05
5.55581E-05
4.14588E-05
3.07164E-05
2.28275E-05
1.79599E-05
1.25887E-05
5.53902E-06
-5.03548E-07
-4.53193E-06
-8.22461E-06
-8.22461E-06
-6.21042E-06
-4.53193E-06
-3.18914E-06
-2.18204E-06
-1.17494E-06
1.67849E-07
-8.39246E-07
-2.85344E-06
-5.20333E-06
-7.55322E-06
-7.21752E-06
-4.19623E-06
-5.03548E-07
4.53193E-06
7.55322E-06
5.87472E-06
5.20333E-06
6.54612E-06
6.71397E-06
5.03548E-06
3.18914E-06
3.69268E-06
5.53902E-06
6.21042E-06
3.52483E-06
1.17494E-06
-1.67849E-07
2.18204E-06
6.88182E-06
9.90311E-06
1.17494E-05
1.32601E-05
1.32601E-05
1.35958E-05
1.32601E-05
1.15816E-05
8.89601E-06
7.55322E-06
4.69978E-06
1.17494E-06
-1.51064E-06
-1.17494E-06
1.17494E-06
2.85344E-06
5.20333E-06
1.19173E-05
1.81277E-05
2.38346E-05
3.10521E-05
3.79339E-05
4.31373E-05
4.48157E-05
3.87732E-05
3.08843E-05
2.88701E-05
3.13878E-05
3.47448E-05
3.60876E-05
3.64233E-05
3.74304E-05
3.6759E-05
3.27306E-05
2.7863E-05
2.46738E-05
1.99741E-05
1.32601E-05
7.21752E-06
6.71397E-07
-3.52483E-06
-4.86763E-06
-4.36408E-06
-1.51064E-06
5.03548E-07
2.18204E-06
6.21042E-06
9.90311E-06
9.90311E-06
9.56741E-06
6.88182E-06
2.18204E-06
-1.17494E-06
-1.84634E-06
-2.85344E-06
-5.20333E-06
-6.37827E-06
-8.22461E-06
-1.02388E-05
-1.25887E-05
-1.51064E-05
-1.46029E-05
-8.72816E-06
4.86763E-06
2.06455E-05
3.3402E-05
4.33051E-05
5.20333E-05
5.82437E-05
6.05936E-05
5.65652E-05
4.7837E-05
3.6759E-05
2.51774E-05
1.49386E-05
6.37827E-06
-1.84634E-06
-4.86763E-06
-3.02129E-06
-2.51774E-06
-4.19623E-06
-6.54612E-06
-9.23171E-06
-7.55322E-06
-3.35698E-06
-6.71397E-07
8.39246E-07
2.51774E-06
3.52483E-06
3.52483E-06
1.84634E-06
-1.34279E-06
-1.84634E-06
3.35698E-07
1.17494E-06
-3.35698E-07
-4.69978E-06
-8.56031E-06
-8.39246E-06
-6.37827E-06
-7.88891E-06
-1.19173E-05
-1.49386E-05
-1.32601E-05
-5.87472E-06
3.69268E-06
1.09102E-05
1.39315E-05
1.12459E-05
7.88891E-06
6.54612E-06
7.88891E-06
1.39315E-05
1.8967E-05
2.26596E-05
2.4506E-05
2.19882E-05
1.93027E-05
1.69528E-05
1.24208E-05
6.54612E-06
1.17494E-06
-1.17494E-06
-1.67849E-07
4.53193E-06
1.29244E-05
1.86313E-05
2.09812E-05
2.40024E-05
2.80308E-05
3.23949E-05
3.45769E-05
3.65911E-05
3.99481E-05
4.07874E-05
4.07874E-05
4.04517E-05
3.94446E-05
3.47448E-05
2.55131E-05
1.96384E-05
1.93027E-05
2.13169E-05
2.56809E-05
3.20592E-05
3.62554E-05
3.62554E-05
3.40734E-05
2.80308E-05
1.93027E-05
1.25887E-05
7.55322E-06
3.86053E-06
2.34989E-06
1.84634E-06
1.51064E-06
2.18204E-06
1.17494E-06
-1.0071E-06
3.35698E-07
5.20333E-06
1.27565E-05
1.98062E-05
2.23239E-05
1.91348E-05
1.39315E-05
7.88891E-06
5.03548E-06
1.84634E-06
-1.0071E-06
-1.84634E-06
-2.51774E-06
-3.18914E-06
-1.51064E-06
1.67849E-07
5.03548E-07
5.03548E-07
1.0071E-06
1.84634E-06
5.03548E-07
-2.34989E-06
-3.86053E-06
-2.51774E-06
-2.18204E-06
-2.18204E-06
-2.51774E-06
-2.18204E-06
2.51774E-06
9.23171E-06
1.17494E-05
8.56031E-06
6.71397E-06
7.72107E-06
8.39246E-06
7.72107E-06
6.88182E-06
8.56031E-06
1.02388E-05
9.23171E-06
5.87472E-06
-6.71397E-07
-5.70687E-06
-4.53193E-06
-1.17494E-06
2.18204E-06
5.03548E-06
5.20333E-06
5.87472E-06
8.56031E-06
9.23171E-06
8.56031E-06
9.90311E-06
1.24208E-05
1.59457E-05
2.1149E-05
2.40024E-05
2.63523E-05
2.92058E-05
2.90379E-05
2.6688E-05
2.36667E-05
2.04776E-05
1.86313E-05
1.84634E-05
1.42672E-05
6.54612E-06
5.03548E-07
-2.51774E-06
-2.85344E-06
-1.0071E-06
5.03548E-06
1.12459E-05
9.90311E-06
2.51774E-06
-1.67849E-06
8.39246E-07
9.56741E-06
2.09812E-05
3.27306E-05
4.26337E-05
4.93477E-05
5.05226E-05
4.21302E-05
2.7863E-05
1.05745E-05
-2.85344E-06
-1.19173E-05
-1.62814E-05
-1.27565E-05
-1.34279E-06
1.42672E-05
3.02129E-05
4.04517E-05
4.81727E-05
5.58938E-05
5.62295E-05
4.71656E-05
3.20592E-05
1.79599E-05
7.55322E-06
8.39246E-07
-4.19623E-06
-6.21042E-06
-3.35698E-06
3.52483E-06
1.14137E-05
1.79599E-05
2.26596E-05
2.51774E-05
2.60166E-05
2.50095E-05
2.13169E-05
1.46029E-05
6.88182E-06
4.53193E-06
6.88182E-06
1.02388E-05
1.15816E-05
9.06386E-06
5.70687E-06
4.53193E-06
3.35698E-06
1.51064E-06
1.17494E-06
2.18204E-06
2.51774E-06
2.01419E-06
2.51774E-06
1.51064E-06
-1.0071E-06
-3.02129E-06
-1.84634E-06
1.17494E-06
4.86763E-06
7.21752E-06
8.39246E-06
8.89601E-06
7.72107E-06
4.19623E-06
5.03548E-07
-1.67849E-07
-5.03548E-07
-2.85344E-06
-3.69268E-06
-2.85344E-06
-1.84634E-06
1.17494E-06
5.87472E-06
9.90311E-06
1.42672E-05
2.06455E-05
2.76951E-05
3.3402E-05
3.54162E-05
3.39055E-05
3.10521E-05
2.70237E-05
2.46738E-05
2.34989E-05
2.36667E-05
2.13169E-05
1.86313E-05
1.37636E-05
8.39246E-06
2.01419E-06
-1.17494E-06
0
1.84634E-06
4.53193E-06
7.72107E-06
9.90311E-06
1.05745E-05
9.06386E-06
6.37827E-06
6.37827E-06
7.72107E-06
8.56031E-06
1.02388E-05
1.30922E-05
1.42672E-05
1.32601E-05
1.19173E-05
1.19173E-05
1.19173E-05
9.90311E-06
6.71397E-06
3.86053E-06
2.18204E-06
2.01419E-06
4.19623E-06
4.36408E-06
4.02838E-06
5.20333E-06
7.88891E-06
9.90311E-06
1.05745E-05
9.56741E-06
8.56031E-06
9.90311E-06
9.23171E-06
7.55322E-06
5.20333E-06
1.67849E-06
-1.17494E-06
-6.71397E-07
1.0071E-06
1.84634E-06
3.35698E-07
3.35698E-07
3.18914E-06
6.54612E-06
9.39956E-06
1.15816E-05
1.40993E-05
1.57778E-05
1.79599E-05
1.91348E-05
1.82956E-05
1.66171E-05
9.23171E-06
-2.18204E-06
-9.90311E-06
-1.30922E-05
-1.2253E-05
-6.88182E-06
-5.03548E-07
2.51774E-06
5.03548E-06
7.88891E-06
9.23171E-06
1.2253E-05
1.66171E-05
1.98062E-05
2.13169E-05
2.34989E-05
2.6688E-05
3.27306E-05
3.77661E-05
3.65911E-05
3.20592E-05
2.93736E-05
3.10521E-05
3.3402E-05
3.15557E-05
2.63523E-05
1.99741E-05
1.66171E-05
1.59457E-05
1.72885E-05
2.53452E-05
3.91089E-05
4.91798E-05
5.18654E-05
5.15297E-05
5.01869E-05
4.48157E-05
3.59197E-05
2.53452E-05
1.87991E-05
1.62814E-05
1.40993E-05
1.32601E-05
1.29244E-05
1.05745E-05
6.54612E-06
2.51774E-06
1.67849E-07
-1.67849E-06
-4.36408E-06
-6.88182E-06
-6.21042E-06
-5.53902E-06
-7.72107E-06
-9.56741E-06
-1.04067E-05
-1.09102E-05
-1.04067E-05
-1.12459E-05
-1.29244E-05
-1.27565E-05
-9.90311E-06
-4.53193E-06
5.03548E-07
2.18204E-06
1.17494E-06
-3.35698E-07
-3.35698E-06
-4.69978E-06
-4.19623E-06
-3.35698E-06
-1.84634E-06
5.03548E-07
3.86053E-06
6.88182E-06
7.88891E-06
9.06386E-06
9.23171E-06
7.55322E-06
2.01419E-06
-2.85344E-06
-1.17494E-06
7.04967E-06
1.4435E-05
1.66171E-05
1.62814E-05
1.39315E-05
1.0071E-05
8.72816E-06
7.88891E-06
7.55322E-06
9.56741E-06
1.35958E-05
1.84634E-05
2.40024E-05
2.83665E-05
2.90379E-05
2.80308E-05
2.88701E-05
2.87022E-05
2.61845E-05
2.09812E-05
1.52743E-05
1.25887E-05
1.15816E-05
8.89601E-06
4.53193E-06
5.03548E-07
-8.39246E-07
1.0071E-06
3.02129E-06
2.85344E-06
3.18914E-06
5.20333E-06
7.72107E-06
9.90311E-06
1.05745E-05
1.42672E-05
1.86313E-05
1.99741E-05
2.03098E-05
2.16526E-05
2.40024E-05
2.40024E-05
2.19882E-05
2.13169E-05
2.18204E-05
2.13169E-05
1.86313E-05
1.59457E-05
1.69528E-05
1.93027E-05
2.09812E-05
1.93027E-05
1.86313E-05
2.01419E-05
2.09812E-05
2.06455E-05
1.82956E-05
1.49386E-05
1.1078E-05
1.0071E-05
1.09102E-05
1.12459E-05
1.05745E-05
1.1078E-05
1.05745E-05
1.02388E-05
1.05745E-05
1.12459E-05
6.54612E-06
-8.39246E-07
-9.90311E-06
-1.94705E-05
-2.6688E-05
-3.0045E-05
-2.98772E-05
-2.56809E-05
-1.8967E-05
-1.54421E-05
-1.2253E-05
-4.53193E-06
4.19623E-06
1.29244E-05
2.24918E-05
2.93736E-05
3.6759E-05
4.51514E-05
5.22011E-05
5.75723E-05
5.52224E-05
4.21302E-05
2.93736E-05
2.4506E-05
2.19882E-05
1.57778E-05
7.88891E-06
-1.0071E-06
-9.56741E-06
-1.42672E-05
-1.52743E-05
-1.35958E-05
-8.22461E-06
8.39246E-07
1.02388E-05
1.8967E-05
2.6688E-05
3.72625E-05
5.06905E-05
6.1265E-05
6.09293E-05
5.18654E-05
3.96124E-05
3.35698E-05
3.37377E-05
2.90379E-05
1.62814E-05
2.51774E-06
-5.03548E-06
-5.87472E-06
-9.06386E-06
-1.49386E-05
-1.82956E-05
-2.18204E-05
-2.60166E-05
-2.63523E-05
-2.06455E-05
-1.04067E-05
3.18914E-06
1.59457E-05
2.53452E-05
2.98772E-05
2.93736E-05
2.90379E-05
2.87022E-05
2.43381E-05
1.52743E-05
4.53193E-06
-1.67849E-06
-2.51774E-06
-2.85344E-06
-4.19623E-06
-4.19623E-06
-1.84634E-06
8.39246E-07
1.17494E-06
1.51064E-06
3.18914E-06
7.88891E-06
1.12459E-05
1.32601E-05
1.1078E-05
4.19623E-06
1.67849E-06
4.53193E-06
7.88891E-06
9.39956E-06
1.09102E-05
1.49386E-05
2.04776E-05
2.03098E-05
1.561E-05
1.1078E-05
7.88891E-06
7.21752E-06
1.05745E-05
1.35958E-05
1.39315E-05
1.27565E-05
9.56741E-06
9.39956E-06
1.15816E-05
1.4435E-05
1.66171E-05
1.72885E-05
1.64492E-05
1.76242E-05
1.8967E-05
1.99741E-05
2.38346E-05
2.50095E-05
2.09812E-05
1.98062E-05
1.86313E-05
1.8967E-05
1.79599E-05
1.39315E-05
7.88891E-06
1.67849E-07
-5.53902E-06
-6.21042E-06
-6.04257E-06
-6.21042E-06
-5.70687E-06
-7.88891E-06
-9.23171E-06
-6.71397E-06
-3.52483E-06
1.0071E-06
5.20333E-06
6.54612E-06
7.55322E-06
1.05745E-05
1.39315E-05
1.62814E-05
1.76242E-05
1.49386E-05
6.21042E-06
-3.52483E-06
-8.22461E-06
-7.72107E-06
-2.51774E-06
3.02129E-06
5.20333E-06
6.37827E-06
1.25887E-05
2.09812E-05
3.07164E-05
4.07874E-05
4.7837E-05
5.4551E-05
6.02579E-05
5.87472E-05
5.22011E-05
4.64942E-05
3.87732E-05
2.60166E-05
1.46029E-05
7.55322E-06
3.52483E-06
6.71397E-07
-4.19623E-06
-1.05745E-05
-1.64492E-05
-2.28275E-05
-3.10521E-05
-3.91089E-05
-4.31373E-05
-3.91089E-05
-2.97093E-05
-1.51064E-05
4.53193E-06
2.46738E-05
4.07874E-05
5.05226E-05
5.42153E-05
5.06905E-05
4.448E-05
3.8941E-05
3.74304E-05
4.0116E-05
3.94446E-05
3.32342E-05
2.46738E-05
1.8967E-05
1.71206E-05
1.96384E-05
2.26596E-05
2.29953E-05
2.3331E-05
2.46738E-05
2.4506E-05
2.19882E-05
1.8967E-05
1.69528E-05
1.39315E-05
1.02388E-05
9.73526E-06
7.72107E-06
-4.53193E-06
-2.29953E-05
-4.0116E-05
-5.38796E-05
-6.07614E-05
-6.1265E-05
-5.92508E-05
-5.62295E-05
-5.05226E-05
-4.11231E-05
-2.87022E-05
-8.56031E-06
2.23239E-05
5.42153E-05
7.53643E-05
8.47639E-05
8.71138E-05
8.35889E-05
7.50286E-05
6.49577E-05
5.48867E-05
4.73335E-05
4.14588E-05
3.47448E-05
2.83665E-05
2.24918E-05
1.52743E-05
5.03548E-06
-3.69268E-06
-8.72816E-06
-8.22461E-06
-6.21042E-06
-8.22461E-06
-1.32601E-05
-1.76242E-05
-2.16526E-05
-2.26596E-05
-2.3331E-05
-2.36667E-05
-2.31632E-05
-2.16526E-05
-1.98062E-05
-1.52743E-05
-8.56031E-06
-2.85344E-06
5.53902E-06
1.7792E-05
2.93736E-05
3.57519E-05
3.8941E-05
3.84375E-05
3.74304E-05
3.47448E-05
2.88701E-05
2.38346E-05
2.03098E-05
1.93027E-05
2.13169E-05
2.03098E-05
1.49386E-05
1.15816E-05
9.56741E-06
7.04967E-06
5.20333E-06
5.87472E-06
8.56031E-06
1.15816E-05
1.24208E-05
1.1078E-05
1.07424E-05
1.42672E-05
1.76242E-05
1.79599E-05
1.62814E-05
1.39315E-05
1.05745E-05
7.21752E-06
6.54612E-06
7.04967E-06
5.20333E-06
2.51774E-06
-1.84634E-06
-6.37827E-06
-6.88182E-06
-6.37827E-06
-8.56031E-06
-1.19173E-05
-1.46029E-05
-1.52743E-05
-1.64492E-05
-1.76242E-05
-1.46029E-05
-5.53902E-06
8.22461E-06
2.24918E-05
3.20592E-05
3.54162E-05
3.60876E-05
3.44091E-05
3.20592E-05
3.20592E-05
3.47448E-05
4.07874E-05
4.54871E-05
4.48157E-05
3.96124E-05
3.20592E-05
2.18204E-05
1.2253E-05
6.04257E-06
3.86053E-06
6.54612E-06
1.12459E-05
1.42672E-05
1.59457E-05
1.7792E-05
2.24918E-05
3.07164E-05
3.72625E-05
3.65911E-05
3.39055E-05
3.18914E-05
3.07164E-05
2.80308E-05
2.3331E-05
1.82956E-05
1.4435E-05
1.2253E-05
1.09102E-05
1.05745E-05
8.89601E-06
7.38537E-06
5.20333E-06
6.71397E-07
-5.20333E-06
-8.22461E-06
-9.73526E-06
-1.02388E-05
-1.02388E-05
-1.12459E-05
-1.12459E-05
-1.2253E-05
-1.46029E-05
-1.35958E-05
-1.09102E-05
-9.23171E-06
-9.39956E-06
-1.15816E-05
-1.32601E-05
-1.09102E-05
-5.53902E-06
-1.67849E-07
1.17494E-06
1.17494E-06
3.18914E-06
7.04967E-06
1.15816E-05
1.46029E-05
1.79599E-05
2.13169E-05
2.46738E-05
2.80308E-05
3.02129E-05
3.10521E-05
3.30663E-05
3.44091E-05
3.39055E-05
3.20592E-05
2.80308E-05
2.40024E-05
2.38346E-05
1.99741E-05
1.17494E-05
6.37827E-06
5.87472E-06
7.72107E-06
8.22461E-06
7.04967E-06
6.71397E-06
5.20333E-06
4.53193E-06
7.88891E-06
1.05745E-05
1.05745E-05
1.25887E-05
1.37636E-05
1.25887E-05
1.04067E-05
8.56031E-06
9.90311E-06
1.35958E-05
1.71206E-05
1.79599E-05
1.49386E-05
8.72816E-06
5.20333E-06
4.53193E-06
2.51774E-06
8.39246E-07
5.03548E-07
3.86053E-06
1.27565E-05
2.01419E-05
2.26596E-05
2.50095E-05
2.6688E-05
2.65202E-05
2.26596E-05
1.76242E-05
1.17494E-05
6.54612E-06
3.86053E-06
4.36408E-06
3.86053E-06
5.03548E-07
-4.86763E-06
-5.53902E-06
-2.85344E-06
1.67849E-07
1.51064E-06
-1.51064E-06
-6.21042E-06
-1.35958E-05
-1.86313E-05
-1.71206E-05
-1.12459E-05
-3.02129E-06
9.56741E-06
2.38346E-05
3.37377E-05
3.97803E-05
4.46479E-05
4.76692E-05
4.68299E-05
4.38086E-05
4.12909E-05
4.26337E-05
4.28016E-05
4.07874E-05
3.62554E-05
2.85344E-05
1.98062E-05
1.61135E-05
1.62814E-05
1.71206E-05
1.7792E-05
1.7792E-05
1.62814E-05
1.32601E-05
9.23171E-06
7.04967E-06
2.51774E-06
-1.51064E-06
-1.84634E-06
-5.03548E-07
-1.67849E-06
-6.54612E-06
-1.15816E-05
-1.4435E-05
-1.52743E-05
-1.29244E-05
-1.24208E-05
-1.561E-05
-1.93027E-05
-1.91348E-05
-1.30922E-05
-7.21752E-06
-3.02129E-06
5.03548E-07
8.39246E-07
-3.35698E-07
-3.52483E-06
-8.89601E-06
-1.29244E-05
-1.32601E-05
-1.19173E-05
-1.2253E-05
-1.20851E-05
-7.88891E-06
-1.0071E-06
2.18204E-06
4.19623E-06
7.88891E-06
1.20851E-05
1.72885E-05
2.48417E-05
3.03807E-05
3.60876E-05
4.43122E-05
5.2369E-05
5.7908E-05
6.22721E-05
6.42863E-05
6.24399E-05
5.75723E-05
4.86763E-05
4.21302E-05
3.87732E-05
3.3402E-05
2.76951E-05
2.31632E-05
1.86313E-05
1.46029E-05
1.12459E-05
6.54612E-06
3.18914E-06
1.17494E-06
-1.84634E-06
-2.85344E-06
-8.39246E-07
3.86053E-06
1.39315E-05
2.73594E-05
3.84375E-05
4.21302E-05
4.14588E-05
4.0116E-05
3.60876E-05
2.90379E-05
2.09812E-05
1.69528E-05
1.40993E-05
9.90311E-06
5.03548E-06
-5.03548E-07
-5.20333E-06
-7.21752E-06
-6.88182E-06
-5.53902E-06
-3.52483E-06
-2.85344E-06
-1.51064E-06
-1.67849E-06
-2.18204E-06
-2.18204E-06
-1.51064E-06
5.03548E-07
3.18914E-06
2.18204E-06
-1.17494E-06
-3.86053E-06
-7.21752E-06
-9.56741E-06
-9.23171E-06
-8.22461E-06
-8.22461E-06
-1.17494E-05
-1.561E-05
-1.51064E-05
-1.02388E-05
-3.18914E-06
3.69268E-06
9.06386E-06
1.30922E-05
1.66171E-05
1.72885E-05
1.69528E-05
1.86313E-05
1.96384E-05
1.8967E-05
1.74563E-05
1.52743E-05
1.46029E-05
1.66171E-05
1.49386E-05
1.12459E-05
7.72107E-06
1.51064E-06
-6.37827E-06
-1.09102E-05
-1.29244E-05
-1.66171E-05
-1.81277E-05
-1.69528E-05
-1.561E-05
-1.62814E-05
-1.52743E-05
-1.29244E-05
-9.90311E-06
-4.19623E-06
9.23171E-06
2.4506E-05
3.81018E-05
5.35439E-05
6.83146E-05
7.70428E-05
7.83856E-05
7.2343E-05
6.39506E-05
5.55581E-05
4.71656E-05
4.11231E-05
3.54162E-05
2.46738E-05
1.19173E-05
3.35698E-06
-8.39246E-07
-2.51774E-06
-2.18204E-06
-2.85344E-06
-2.18204E-06
-1.67849E-07
2.01419E-06
5.03548E-06
8.39246E-06
8.89601E-06
1.05745E-05
1.32601E-05
1.54421E-05
1.46029E-05
1.09102E-05
7.88891E-06
9.23171E-06
1.2253E-05
1.19173E-05
1.25887E-05
1.59457E-05
1.99741E-05
1.99741E-05
1.2253E-05
4.53193E-06
2.85344E-06
1.51064E-06
-2.51774E-06
-5.53902E-06
-5.03548E-06
-1.51064E-06
1.84634E-06
2.51774E-06
3.18914E-06
4.36408E-06
5.53902E-06
6.88182E-06
9.73526E-06
1.32601E-05
1.66171E-05
1.79599E-05
1.59457E-05
1.15816E-05
7.21752E-06
4.53193E-06
5.87472E-06
6.88182E-06
6.54612E-06
8.22461E-06
1.17494E-05
1.62814E-05
2.3331E-05
2.80308E-05
2.93736E-05
2.87022E-05
2.80308E-05
3.0045E-05
3.05486E-05
2.87022E-05
2.87022E-05
2.71916E-05
2.03098E-05
1.2253E-05
7.72107E-06
7.21752E-06
7.04967E-06
4.69978E-06
1.0071E-06
-4.36408E-06
-8.22461E-06
-7.88891E-06
-4.86763E-06
-2.18204E-06
-1.34279E-06
-1.67849E-06
-3.69268E-06
-7.72107E-06
-1.30922E-05
-1.69528E-05
-1.98062E-05
-2.38346E-05
-2.83665E-05
-3.23949E-05
-3.30663E-05
-3.03807E-05
-2.3331E-05
-1.46029E-05
-2.85344E-06
1.12459E-05
2.60166E-05
4.28016E-05
6.02579E-05
7.48608E-05
8.37568E-05
8.42603E-05
7.77142E-05
6.83146E-05
5.65652E-05
4.81727E-05
4.41443E-05
3.6759E-05
2.56809E-05
1.59457E-05
1.05745E-05
6.37827E-06
6.71397E-07
-2.18204E-06
-1.17494E-06
1.17494E-06
4.53193E-06
4.86763E-06
5.03548E-06
5.53902E-06
6.04257E-06
5.87472E-06
7.21752E-06
7.88891E-06
7.88891E-06
1.04067E-05
1.29244E-05
1.05745E-05
8.39246E-06
1.1078E-05
1.59457E-05
1.39315E-05
7.04967E-06
0
-5.53902E-06
-8.72816E-06
-9.23171E-06
-1.02388E-05
-1.15816E-05
-8.22461E-06
-5.53902E-06
-6.88182E-06
-7.88891E-06
-5.70687E-06
-1.51064E-06
2.01419E-06
5.20333E-06
8.56031E-06
1.2253E-05
1.93027E-05
2.97093E-05
3.81018E-05
4.07874E-05
4.0116E-05
3.87732E-05
3.79339E-05
3.87732E-05
3.64233E-05
3.02129E-05
2.43381E-05
2.04776E-05
1.82956E-05
1.69528E-05
1.62814E-05
1.52743E-05
1.46029E-05
1.30922E-05
1.09102E-05
8.72816E-06
6.71397E-06
3.86053E-06
1.84634E-06
8.39246E-07
1.17494E-06
1.84634E-06
-3.52483E-06
-1.09102E-05
-1.52743E-05
-2.23239E-05
-2.80308E-05
-2.70237E-05
-1.76242E-05
-5.70687E-06
3.52483E-06
9.90311E-06
1.37636E-05
1.66171E-05
2.3331E-05
3.37377E-05
4.21302E-05
4.3473E-05
4.28016E-05
4.33051E-05
4.28016E-05
3.84375E-05
2.93736E-05
2.16526E-05
1.69528E-05
1.39315E-05
1.2253E-05
7.21752E-06
-1.67849E-07
-5.03548E-06
-6.54612E-06
-7.55322E-06
-7.88891E-06
-7.72107E-06
-5.70687E-06
-3.69268E-06
-3.02129E-06
-3.02129E-06
-3.18914E-06
-1.67849E-06
1.51064E-06
5.87472E-06
9.56741E-06
1.1078E-05
1.2253E-05
1.19173E-05
1.05745E-05
8.39246E-06
4.53193E-06
3.52483E-06
4.53193E-06
4.53193E-06
3.52483E-06
2.18204E-06
1.84634E-06
4.53193E-06
9.23171E-06
1.29244E-05
1.561E-05
1.66171E-05
1.46029E-05
1.59457E-05
2.04776E-05
2.29953E-05
2.23239E-05
2.08133E-05
2.29953E-05
2.93736E-05
3.42412E-05
3.40734E-05
2.98772E-05
2.28275E-05
1.8967E-05
1.59457E-05
7.55322E-06
-2.85344E-06
-9.56741E-06
-1.19173E-05
-1.37636E-05
-1.37636E-05
-1.04067E-05
-3.18914E-06
5.20333E-06
1.32601E-05
2.19882E-05
3.02129E-05
3.99481E-05
4.98512E-05
5.28725E-05
4.81727E-05
3.94446E-05
2.90379E-05
1.79599E-05
1.04067E-05
8.22461E-06
8.56031E-06
7.55322E-06
2.01419E-06
-3.18914E-06
-8.89601E-06
-1.32601E-05
-1.30922E-05
-1.02388E-05
-9.56741E-06
-1.05745E-05
-9.56741E-06
-7.88891E-06
-5.87472E-06
-4.69978E-06
-1.84634E-06
1.67849E-06
4.69978E-06
9.90311E-06
1.82956E-05
2.63523E-05
3.13878E-05
3.40734E-05
3.50805E-05
3.60876E-05
3.72625E-05
3.64233E-05
3.50805E-05
3.37377E-05
2.93736E-05
2.56809E-05
2.26596E-05
1.87991E-05
1.96384E-05
2.34989E-05
2.3331E-05
1.8967E-05
1.49386E-05
9.23171E-06
4.19623E-06
5.03548E-07
-2.34989E-06
-5.20333E-06
-8.22461E-06
-4.02838E-06
3.86053E-06
7.72107E-06
4.69978E-06
-1.84634E-06
-9.23171E-06
-1.2253E-05
-9.56741E-06
-7.04967E-06
-7.55322E-06
-8.56031E-06
-9.90311E-06
-1.15816E-05
-1.14137E-05
-1.02388E-05
-9.23171E-06
-7.55322E-06
-3.52483E-06
1.0071E-06
4.86763E-06
1.24208E-05
2.26596E-05
3.35698E-05
4.09552E-05
4.24659E-05
4.04517E-05
3.74304E-05
3.54162E-05
3.18914E-05
2.80308E-05
2.36667E-05
1.87991E-05
1.71206E-05
1.62814E-05
1.79599E-05
1.86313E-05
1.69528E-05
1.19173E-05
5.03548E-06
-2.85344E-06
-7.88891E-06
-6.88182E-06
-3.18914E-06
-6.21042E-06
-9.90311E-06
-1.09102E-05
-6.88182E-06
6.71397E-07
1.29244E-05
3.0045E-05
4.58228E-05
5.58938E-05
6.09293E-05
6.02579E-05
5.27047E-05
4.28016E-05
3.47448E-05
2.63523E-05
1.84634E-05
1.0071E-05
2.34989E-06
-2.18204E-06
-4.19623E-06
-6.37827E-06
-7.88891E-06
-9.06386E-06
-8.22461E-06
-5.53902E-06
-3.86053E-06
-1.84634E-06
-1.67849E-07
1.17494E-06
2.51774E-06
5.20333E-06
5.20333E-06
2.51774E-06
-1.34279E-06
-3.52483E-06
-2.18204E-06
1.17494E-06
2.51774E-06
1.0071E-06
-3.18914E-06
-8.39246E-06
-1.35958E-05
-1.59457E-05
-1.62814E-05
-1.79599E-05
-2.01419E-05
-2.36667E-05
-2.58488E-05
-2.26596E-05
-1.8967E-05
-1.35958E-05
-5.53902E-06
9.23171E-06
2.61845E-05
4.0116E-05
5.00191E-05
5.62295E-05
6.09293E-05
6.83146E-05
7.67071E-05
7.78821E-05
7.57E-05
7.40215E-05
7.28466E-05
6.83146E-05
6.09293E-05
4.95155E-05
3.74304E-05
2.97093E-05
2.56809E-05
2.06455E-05
1.39315E-05
6.54612E-06
8.39246E-07
-5.20333E-06
-8.22461E-06
-1.20851E-05
-1.39315E-05
-1.39315E-05
-1.02388E-05
-7.72107E-06
-5.03548E-06
-2.85344E-06
-2.51774E-06
-3.18914E-06
-2.51774E-06
-6.71397E-07
8.39246E-07
1.84634E-06
2.85344E-06
3.86053E-06
3.02129E-06
1.51064E-06
1.84634E-06
1.84634E-06
1.17494E-06
5.03548E-07
-3.52483E-06
-1.52743E-05
-2.93736E-05
-3.77661E-05
-3.97803E-05
-3.45769E-05
-2.4506E-05
-1.27565E-05
-3.86053E-06
-1.67849E-07
1.84634E-06
1.02388E-05
2.50095E-05
4.28016E-05
5.99222E-05
6.86503E-05
6.94896E-05
6.81468E-05
6.39506E-05
5.48867E-05
4.04517E-05
2.40024E-05
1.561E-05
1.72885E-05
2.03098E-05
1.84634E-05
1.2253E-05
4.53193E-06
-2.18204E-06
-4.53193E-06
-4.36408E-06
-1.84634E-06
-1.51064E-06
-4.86763E-06
-6.71397E-06
-6.54612E-06
-5.53902E-06
-1.84634E-06
4.36408E-06
9.23171E-06
9.90311E-06
7.38537E-06
5.20333E-06
4.69978E-06
3.86053E-06
2.85344E-06
2.34989E-06
0
-4.19623E-06
-7.55322E-06
-7.21752E-06
-3.35698E-06
1.17494E-06
2.51774E-06
2.18204E-06
-8.39246E-07
-5.53902E-06
-5.53902E-06
-8.39246E-07
5.53902E-06
1.24208E-05
1.93027E-05
2.60166E-05
3.37377E-05
3.94446E-05
4.04517E-05
3.81018E-05
3.3402E-05
2.93736E-05
2.85344E-05
2.92058E-05
3.10521E-05
3.40734E-05
3.54162E-05
3.5584E-05
3.44091E-05
3.122E-05
2.70237E-05
2.46738E-05
1.94705E-05
1.46029E-05
1.19173E-05
1.02388E-05
9.73526E-06
9.90311E-06
1.15816E-05
1.2253E-05
1.02388E-05
8.56031E-06
8.56031E-06
1.02388E-05
1.15816E-05
1.12459E-05
8.89601E-06
7.55322E-06
9.23171E-06
1.05745E-05
7.72107E-06
4.19623E-06
3.18914E-06
4.19623E-06
5.20333E-06
5.87472E-06
6.21042E-06
5.53902E-06
2.51774E-06
-1.51064E-06
-6.21042E-06
-1.02388E-05
-9.23171E-06
-6.21042E-06
-5.53902E-06
-4.53193E-06
-4.53193E-06
-3.18914E-06
2.34989E-06
6.21042E-06
2.51774E-06
-2.51774E-06
-6.21042E-06
-7.38537E-06
-7.55322E-06
-7.55322E-06
-7.72107E-06
-5.53902E-06
-3.35698E-07
8.22461E-06
1.86313E-05
2.93736E-05
3.92767E-05
4.48157E-05
4.49836E-05
4.41443E-05
4.19623E-05
3.91089E-05
3.64233E-05
3.59197E-05
3.60876E-05
3.57519E-05
3.45769E-05
3.27306E-05
3.07164E-05
2.73594E-05
2.13169E-05
1.561E-05
9.73526E-06
4.69978E-06
1.0071E-06
-2.18204E-06
-3.52483E-06
-5.53902E-06
-6.88182E-06
-5.70687E-06
-3.86053E-06
-1.51064E-06
8.39246E-07
3.02129E-06
6.54612E-06
1.39315E-05
2.24918E-05
2.76951E-05
2.80308E-05
2.34989E-05
1.79599E-05
1.15816E-05
6.37827E-06
4.36408E-06
3.69268E-06
5.03548E-07
-4.53193E-06
-9.06386E-06
-1.19173E-05
-1.2253E-05
-1.02388E-05
-9.73526E-06
-1.02388E-05
-1.1078E-05
-1.05745E-05
-5.53902E-06
4.53193E-06
1.2253E-05
1.67849E-05
2.16526E-05
2.60166E-05
2.71916E-05
2.53452E-05
2.3331E-05
2.36667E-05
2.38346E-05
2.18204E-05
1.86313E-05
1.46029E-05
1.24208E-05
1.32601E-05
1.32601E-05
1.32601E-05
1.29244E-05
1.05745E-05
7.21752E-06
6.21042E-06
8.89601E-06
1.02388E-05
7.55322E-06
3.02129E-06
2.51774E-06
5.20333E-06
4.53193E-06
-1.17494E-06
-8.56031E-06
-1.66171E-05
-2.26596E-05
-2.53452E-05
-2.13169E-05
-1.25887E-05
-1.67849E-07
1.37636E-05
2.53452E-05
3.57519E-05
4.68299E-05
5.58938E-05
5.82437E-05
5.18654E-05
4.3473E-05
3.65911E-05
2.73594E-05
1.99741E-05
1.99741E-05
2.06455E-05
1.91348E-05
1.69528E-05
1.52743E-05
1.30922E-05
9.06386E-06
5.53902E-06
1.84634E-06
1.0071E-06
5.20333E-06
1.32601E-05
2.06455E-05
2.48417E-05
2.58488E-05
2.53452E-05
1.96384E-05
1.1078E-05
4.69978E-06
2.68559E-06
3.86053E-06
5.20333E-06
6.21042E-06
6.88182E-06
8.56031E-06
1.05745E-05
1.25887E-05
1.40993E-05
1.46029E-05
1.30922E-05
1.39315E-05
1.76242E-05
1.82956E-05
1.66171E-05
1.37636E-05
9.90311E-06
8.89601E-06
9.56741E-06
1.04067E-05
1.19173E-05
1.35958E-05
1.17494E-05
7.55322E-06
1.51064E-06
-5.20333E-06
-1.0071E-05
-1.1078E-05
-8.89601E-06
-5.53902E-06
-2.18204E-06
2.51774E-06
1.15816E-05
2.19882E-05
2.76951E-05
2.97093E-05
3.0045E-05
3.05486E-05
2.83665E-05
2.21561E-05
1.62814E-05
1.25887E-05
9.56741E-06
7.88891E-06
6.21042E-06
2.51774E-06
1.67849E-07
-1.17494E-06
-2.18204E-06
-2.18204E-06
1.67849E-07
5.53902E-06
1.05745E-05
1.49386E-05
1.8967E-05
2.13169E-05
2.1149E-05
2.1149E-05
2.09812E-05
1.8967E-05
1.46029E-05
9.23171E-06
5.87472E-06
3.52483E-06
3.35698E-07
-2.18204E-06
-3.02129E-06
-6.71397E-07
2.85344E-06
6.54612E-06
8.56031E-06
1.02388E-05
1.29244E-05
1.30922E-05
1.09102E-05
9.23171E-06
8.89601E-06
9.06386E-06
1.19173E-05
1.49386E-05
1.37636E-05
9.73526E-06
5.20333E-06
3.52483E-06
3.52483E-06
2.51774E-06
0
-1.0071E-06
-1.17494E-06
-8.39246E-07
2.34989E-06
6.88182E-06
1.32601E-05
2.08133E-05
2.56809E-05
2.76951E-05
2.73594E-05
2.50095E-05
2.26596E-05
2.18204E-05
1.7792E-05
1.05745E-05
1.84634E-06
-5.53902E-06
-7.55322E-06
-5.87472E-06
-2.51774E-06
1.67849E-07
3.35698E-07
1.67849E-07
-1.17494E-06
-3.35698E-06
-3.18914E-06
-5.03548E-07
3.86053E-06
1.04067E-05
1.66171E-05
2.18204E-05
2.60166E-05
2.90379E-05
3.20592E-05
3.57519E-05
3.59197E-05
3.30663E-05
2.90379E-05
2.58488E-05
2.40024E-05
2.18204E-05
1.79599E-05
1.37636E-05
1.0071E-05
9.23171E-06
7.88891E-06
-1.67849E-07
-1.39315E-05
-2.36667E-05
-2.6688E-05
-2.63523E-05
-2.26596E-05
-1.71206E-05
-1.27565E-05
-9.06386E-06
-3.52483E-06
2.18204E-06
1.05745E-05
2.24918E-05
3.47448E-05
4.7837E-05
6.1265E-05
7.30144E-05
8.2414E-05
8.40925E-05
7.58679E-05
6.16007E-05
4.73335E-05
3.74304E-05
3.39055E-05
3.03807E-05
2.34989E-05
1.32601E-05
3.18914E-06
-1.51064E-06
-1.51064E-06
1.67849E-07
5.03548E-07
-2.01419E-06
-4.53193E-06
-5.70687E-06
-4.86763E-06
-5.20333E-06
-6.04257E-06
-6.54612E-06
-9.23171E-06
-1.19173E-05
-1.49386E-05
-1.74563E-05
-1.561E-05
-8.89601E-06
8.39246E-07
9.90311E-06
1.27565E-05
1.27565E-05
1.54421E-05
1.72885E-05
1.52743E-05
1.05745E-05
7.72107E-06
1.02388E-05
1.52743E-05
1.69528E-05
1.69528E-05
1.69528E-05
1.32601E-05
7.21752E-06
1.67849E-06
8.39246E-07
2.34989E-06
4.19623E-06
5.87472E-06
5.20333E-06
2.34989E-06
-1.17494E-06
-1.84634E-06
-1.67849E-06
-2.18204E-06
-5.03548E-07
2.18204E-06
4.53193E-06
6.21042E-06
3.86053E-06
1.17494E-06
8.39246E-07
1.84634E-06
2.85344E-06
6.21042E-06
1.20851E-05
1.66171E-05
1.71206E-05
1.49386E-05
1.47707E-05
1.86313E-05
2.21561E-05
2.48417E-05
2.60166E-05
2.46738E-05
2.28275E-05
1.94705E-05
1.39315E-05
4.53193E-06
-6.71397E-06
-1.62814E-05
-2.1149E-05
-1.8967E-05
-8.56031E-06
7.72107E-06
2.50095E-05
3.74304E-05
4.38086E-05
4.54871E-05
4.48157E-05
4.14588E-05
3.54162E-05
2.93736E-05
2.51774E-05
2.08133E-05
1.561E-05
1.25887E-05
1.05745E-05
6.21042E-06
1.51064E-06
-5.53902E-06
-1.04067E-05
-9.23171E-06
-5.20333E-06
-1.51064E-06
2.01419E-06
4.02838E-06
5.87472E-06
7.21752E-06
8.22461E-06
7.21752E-06
7.55322E-06
1.05745E-05
1.42672E-05
1.69528E-05
2.06455E-05
2.4506E-05
2.93736E-05
3.44091E-05
3.74304E-05
3.87732E-05
3.81018E-05
3.74304E-05
3.40734E-05
2.60166E-05
1.91348E-05
1.52743E-05
9.23171E-06
-1.51064E-06
-8.89601E-06
-8.56031E-06
-8.39246E-06
-1.0071E-05
-1.09102E-05
-6.54612E-06
2.51774E-06
1.19173E-05
1.99741E-05
2.53452E-05
3.03807E-05
3.44091E-05
3.97803E-05
4.39765E-05
4.33051E-05
4.17945E-05
3.81018E-05
2.6688E-05
1.19173E-05
2.85344E-06
-1.51064E-06
-5.03548E-06
-4.86763E-06
-3.69268E-06
-2.18204E-06
-1.51064E-06
6.71397E-07
3.18914E-06
4.86763E-06
5.03548E-06
2.85344E-06
5.03548E-07
8.39246E-07
4.86763E-06
1.32601E-05
2.29953E-05
2.97093E-05
3.03807E-05
2.61845E-05
2.1149E-05
1.69528E-05
1.05745E-05
4.19623E-06
-2.85344E-06
-7.88891E-06
-1.09102E-05
-1.40993E-05
-1.561E-05
-1.84634E-05
-2.19882E-05
-1.98062E-05
-1.40993E-05
-7.88891E-06
-1.51064E-06
2.01419E-06
3.18914E-06
3.18914E-06
3.18914E-06
5.20333E-06
1.04067E-05
1.59457E-05
1.59457E-05
1.29244E-05
1.02388E-05
9.56741E-06
9.23171E-06
9.23171E-06
9.90311E-06
8.89601E-06
5.53902E-06
4.53193E-06
6.21042E-06
5.53902E-06
3.52483E-06
5.53902E-06
9.90311E-06
1.25887E-05
1.64492E-05
2.34989E-05
3.20592E-05
3.74304E-05
3.65911E-05
3.02129E-05
2.3331E-05
1.99741E-05
1.7792E-05
1.72885E-05
1.72885E-05
1.64492E-05
1.42672E-05
1.2253E-05
1.19173E-05
1.04067E-05
8.89601E-06
8.39246E-06
7.88891E-06
7.55322E-06
8.89601E-06
8.56031E-06
4.86763E-06
-1.51064E-06
-7.04967E-06
-9.56741E-06
-1.2253E-05
-1.37636E-05
-1.49386E-05
-1.561E-05
-1.29244E-05
-7.88891E-06
-2.18204E-06
3.86053E-06
1.14137E-05
1.96384E-05
2.56809E-05
2.80308E-05
2.53452E-05
2.06455E-05
1.98062E-05
2.29953E-05
2.73594E-05
3.47448E-05
4.58228E-05
5.74044E-05
6.37827E-05
6.19364E-05
5.4551E-05
4.81727E-05
4.16266E-05
3.30663E-05
2.58488E-05
2.56809E-05
3.10521E-05
3.20592E-05
2.46738E-05
1.39315E-05
2.34989E-06
-7.38537E-06
-1.12459E-05
-1.02388E-05
-6.54612E-06
-5.87472E-06
-9.23171E-06
-1.19173E-05
-1.19173E-05
-9.56741E-06
-7.21752E-06
-4.53193E-06
-2.85344E-06
-8.39246E-07
1.84634E-06
1.51064E-06
-5.03548E-07
6.71397E-07
3.52483E-06
5.20333E-06
7.21752E-06
1.09102E-05
1.40993E-05
1.4435E-05
1.25887E-05
1.12459E-05
8.22461E-06
2.34989E-06
-3.02129E-06
-6.54612E-06
-8.22461E-06
-9.56741E-06
-8.56031E-06
-7.55322E-06
-5.53902E-06
-5.70687E-06
-6.88182E-06
-4.19623E-06
2.68559E-06
1.15816E-05
2.3331E-05
3.47448E-05
4.02838E-05
4.28016E-05
4.41443E-05
4.24659E-05
3.44091E-05
2.71916E-05
2.48417E-05
2.53452E-05
2.73594E-05
3.10521E-05
3.47448E-05
3.52483E-05
3.37377E-05
2.97093E-05
2.34989E-05
1.91348E-05
1.59457E-05
1.2253E-05
9.73526E-06
6.21042E-06
2.34989E-06
1.67849E-07
-3.35698E-07
2.51774E-06
7.04967E-06
1.05745E-05
1.12459E-05
9.90311E-06
3.18914E-06
-3.18914E-06
-4.86763E-06
-2.18204E-06
1.17494E-06
3.18914E-06
5.87472E-06
1.05745E-05
1.25887E-05
1.24208E-05
1.561E-05
1.79599E-05
1.57778E-05
1.15816E-05
8.89601E-06
9.23171E-06
9.06386E-06
6.37827E-06
4.19623E-06
2.85344E-06
8.39246E-07
2.34989E-06
7.21752E-06
1.12459E-05
1.09102E-05
1.1078E-05
1.35958E-05
1.64492E-05
1.66171E-05
1.39315E-05
1.2253E-05
1.32601E-05
1.39315E-05
1.15816E-05
5.20333E-06
-3.35698E-07
-4.86763E-06
-6.88182E-06
-5.53902E-06
-2.51774E-06
-1.67849E-07
5.03548E-07
3.18914E-06
6.54612E-06
8.22461E-06
6.21042E-06
2.85344E-06
1.84634E-06
4.19623E-06
7.88891E-06
9.39956E-06
1.04067E-05
1.04067E-05
8.72816E-06
6.54612E-06
6.88182E-06
1.15816E-05
1.69528E-05
2.3331E-05
2.63523E-05
2.56809E-05
2.56809E-05
2.63523E-05
2.40024E-05
1.93027E-05
1.72885E-05
1.82956E-05
2.3331E-05
2.70237E-05
2.3331E-05
1.49386E-05
8.22461E-06
5.03548E-07
-8.22461E-06
-1.30922E-05
-1.64492E-05
-1.54421E-05
-9.23171E-06
-2.85344E-06
4.36408E-06
1.39315E-05
2.43381E-05
3.3402E-05
3.70947E-05
3.57519E-05
3.122E-05
2.63523E-05
2.40024E-05
2.29953E-05
2.3331E-05
2.40024E-05
2.3331E-05
1.82956E-05
1.4435E-05
1.1078E-05
4.19623E-06
-4.86763E-06
-9.73526E-06
-1.17494E-05
-1.2253E-05
-7.21752E-06
-1.0071E-06
5.03548E-06
1.4435E-05
2.6688E-05
4.0116E-05
5.01869E-05
5.48867E-05
5.65652E-05
5.55581E-05
5.00191E-05
4.07874E-05
3.20592E-05
2.29953E-05
1.46029E-05
8.22461E-06
5.03548E-06
5.03548E-07
-6.21042E-06
-1.25887E-05
-1.561E-05
-1.35958E-05
-9.90311E-06
-5.87472E-06
-3.52483E-06
-1.17494E-06
8.39246E-07
1.51064E-06
2.85344E-06
4.19623E-06
3.52483E-06
4.53193E-06
8.22461E-06
1.24208E-05
1.62814E-05
1.93027E-05
1.96384E-05
1.69528E-05
1.32601E-05
1.0071E-05
9.23171E-06
1.02388E-05
1.12459E-05
1.19173E-05
1.02388E-05
9.23171E-06
8.22461E-06
7.21752E-06
7.21752E-06
6.54612E-06
6.37827E-06
5.87472E-06
6.21042E-06
4.86763E-06
2.51774E-06
1.67849E-06
2.51774E-06
5.20333E-06
5.53902E-06
5.70687E-06
6.54612E-06
3.18914E-06
-1.67849E-06
-6.88182E-06
-1.15816E-05
-1.24208E-05
-1.02388E-05
-1.15816E-05
-1.27565E-05
-1.20851E-05
-1.15816E-05
-1.02388E-05
-4.53193E-06
5.87472E-06
1.72885E-05
2.81987E-05
3.91089E-05
4.95155E-05
5.58938E-05
5.22011E-05
4.3473E-05
3.94446E-05
3.47448E-05
2.83665E-05
2.06455E-05
1.46029E-05
1.35958E-05
1.2253E-05
9.06386E-06
7.88891E-06
6.21042E-06
4.19623E-06
3.52483E-06
2.51774E-06
8.39246E-07
-5.53902E-06
-1.29244E-05
-1.66171E-05
-1.69528E-05
-1.561E-05
-1.37636E-05
-1.19173E-05
-1.1078E-05
-8.39246E-06
-3.18914E-06
5.20333E-06
1.46029E-05
2.4506E-05
3.42412E-05
4.36408E-05
5.08583E-05
5.33761E-05
5.22011E-05
4.88441E-05
4.49836E-05
3.86053E-05
2.90379E-05
2.13169E-05
1.86313E-05
1.42672E-05
6.54612E-06
1.51064E-06
3.35698E-07
5.03548E-07
3.35698E-07
2.34989E-06
3.02129E-06
1.51064E-06
0
1.67849E-07
3.35698E-07
-3.35698E-07
-3.35698E-07
1.67849E-07
1.51064E-06
1.0071E-06
-6.71397E-07
-2.34989E-06
-2.18204E-06
2.51774E-06
1.04067E-05
2.01419E-05
2.85344E-05
3.37377E-05
3.45769E-05
3.122E-05
2.40024E-05
1.59457E-05
7.21752E-06
-1.67849E-07
-1.67849E-06
2.51774E-06
9.73526E-06
1.7792E-05
2.1149E-05
1.99741E-05
1.8967E-05
1.72885E-05
1.46029E-05
1.25887E-05
1.12459E-05
1.2253E-05
1.54421E-05
2.13169E-05
3.10521E-05
4.06195E-05
4.54871E-05
4.64942E-05
4.3473E-05
3.6759E-05
2.76951E-05
1.66171E-05
6.54612E-06
8.39246E-07
-6.71397E-07
-5.03548E-07
0
-1.51064E-06
-9.56741E-06
-2.21561E-05
-3.0045E-05
-2.87022E-05
-2.29953E-05
-1.71206E-05
-1.12459E-05
-9.23171E-06
-8.22461E-06
-4.53193E-06
5.03548E-07
6.88182E-06
1.46029E-05
2.40024E-05
3.44091E-05
4.26337E-05
4.81727E-05
5.13619E-05
5.05226E-05
4.75013E-05
4.51514E-05
3.84375E-05
2.87022E-05
1.99741E-05
1.51064E-05
1.19173E-05
8.22461E-06
4.53193E-06
-8.39246E-07
-3.69268E-06
-5.20333E-06
-4.19623E-06
-1.84634E-06
-2.18204E-06
-2.51774E-06
-1.51064E-06
-8.39246E-07
-8.39246E-07
8.39246E-07
2.01419E-06
3.69268E-06
3.52483E-06
1.67849E-06
1.84634E-06
2.85344E-06
1.34279E-06
-5.03548E-07
-1.51064E-06
-1.51064E-06
-2.85344E-06
-6.54612E-06
-9.06386E-06
-7.21752E-06
-2.18204E-06
1.17494E-06
2.85344E-06
7.04967E-06
9.90311E-06
1.02388E-05
9.23171E-06
8.39246E-06
1.25887E-05
2.04776E-05
2.88701E-05
3.65911E-05
4.21302E-05
4.3473E-05
4.11231E-05
3.6759E-05
3.25628E-05
2.97093E-05
2.90379E-05
3.05486E-05
3.10521E-05
2.58488E-05
1.76242E-05
1.02388E-05
3.35698E-06
-2.85344E-06
-8.22461E-06
-1.51064E-05
-1.93027E-05
-1.76242E-05
-1.20851E-05
-9.73526E-06
-1.1078E-05
-1.25887E-05
-1.15816E-05
-8.89601E-06
-8.22461E-06
-7.21752E-06
-4.02838E-06
-3.69268E-06
-5.03548E-06
1.17494E-06
1.86313E-05
4.17945E-05
6.3447E-05
7.97284E-05
8.77851E-05
8.67781E-05
7.97284E-05
6.96574E-05
5.72366E-05
4.26337E-05
2.97093E-05
1.86313E-05
1.2253E-05
6.88182E-06
1.0071E-06
-4.02838E-06
-1.04067E-05
-1.82956E-05
-2.1149E-05
-1.69528E-05
-1.15816E-05
-1.04067E-05
-9.56741E-06
-9.23171E-06
-8.39246E-06
-6.21042E-06
-4.53193E-06
-3.18914E-06
-1.51064E-06
-1.67849E-07
-6.71397E-07
-4.19623E-06
-6.21042E-06
-4.19623E-06
-1.51064E-06
2.34989E-06
5.20333E-06
6.04257E-06
4.53193E-06
3.35698E-07
-9.23171E-06
-1.93027E-05
-2.34989E-05
-2.16526E-05
-1.62814E-05
-1.35958E-05
-1.19173E-05
-5.53902E-06
5.87472E-06
1.8967E-05
3.10521E-05
4.2298E-05
5.40475E-05
6.39506E-05
6.63005E-05
6.29435E-05
5.65652E-05
5.01869E-05
4.68299E-05
4.39765E-05
4.21302E-05
4.0116E-05
3.64233E-05
2.70237E-05
1.46029E-05
3.86053E-06
-2.51774E-06
-6.04257E-06
-4.86763E-06
3.02129E-06
1.25887E-05
1.69528E-05
1.93027E-05
2.36667E-05
2.53452E-05
2.3331E-05
1.86313E-05
1.32601E-05
8.56031E-06
3.86053E-06
3.35698E-07
-2.85344E-06
-7.21752E-06
-1.09102E-05
-1.09102E-05
-5.20333E-06
4.19623E-06
1.04067E-05
1.1078E-05
8.56031E-06
5.53902E-06
5.87472E-06
6.54612E-06
4.19623E-06
2.01419E-06
4.02838E-06
7.88891E-06
7.88891E-06
5.20333E-06
3.86053E-06
1.17494E-06
-6.54612E-06
-1.62814E-05
-2.23239E-05
-2.23239E-05
-1.72885E-05
-1.04067E-05
-2.18204E-06
8.22461E-06
2.03098E-05
3.17235E-05
3.79339E-05
3.97803E-05
3.60876E-05
2.73594E-05
1.66171E-05
1.02388E-05
9.90311E-06
1.25887E-05
1.52743E-05
1.59457E-05
1.32601E-05
9.90311E-06
6.21042E-06
4.69978E-06
3.69268E-06
2.85344E-06
1.51064E-06
0
-1.17494E-06
-2.34989E-06
-3.18914E-06
-3.18914E-06
-5.53902E-06
-8.22461E-06
-7.88891E-06
-5.87472E-06
-3.86053E-06
2.85344E-06
1.25887E-05
1.79599E-05
1.86313E-05
1.99741E-05
2.21561E-05
2.19882E-05
2.40024E-05
3.07164E-05
3.79339E-05
4.64942E-05
5.22011E-05
5.1194E-05
4.51514E-05
3.6759E-05
2.93736E-05
2.36667E-05
1.25887E-05
-1.0071E-06
-6.54612E-06
-7.55322E-06
-1.12459E-05
-1.64492E-05
-2.16526E-05
-2.18204E-05
-1.8967E-05
-1.561E-05
-7.72107E-06
7.04967E-06
2.56809E-05
4.54871E-05
6.09293E-05
6.86503E-05
6.88182E-05
6.36149E-05
5.52224E-05
4.54871E-05
3.47448E-05
2.6688E-05
2.26596E-05
1.93027E-05
1.72885E-05
1.79599E-05
1.86313E-05
1.81277E-05
1.52743E-05
1.0071E-05
6.21042E-06
5.20333E-06
2.85344E-06
-1.84634E-06
-2.18204E-06
-2.85344E-06
-5.20333E-06
-5.03548E-06
-3.35698E-07
6.71397E-06
1.25887E-05
1.24208E-05
9.39956E-06
7.21752E-06
5.87472E-06
6.21042E-06
7.55322E-06
1.19173E-05
1.47707E-05
1.19173E-05
8.56031E-06
7.38537E-06
4.53193E-06
2.34989E-06
6.71397E-07
-1.34279E-06
-4.86763E-06
-7.55322E-06
-9.06386E-06
-1.09102E-05
-1.02388E-05
-1.37636E-05
-2.26596E-05
-3.122E-05
-3.97803E-05
-4.53193E-05
-4.53193E-05
-4.04517E-05
-3.52483E-05
-2.80308E-05
-1.59457E-05
2.51774E-06
2.43381E-05
4.80049E-05
6.8986E-05
8.22461E-05
8.64424E-05
8.71138E-05
8.5771E-05
7.60357E-05
5.1194E-05
1.86313E-05
-8.39246E-06
-2.29953E-05
-2.76951E-05
-2.73594E-05
-2.63523E-05
-2.76951E-05
-2.92058E-05
-2.63523E-05
-1.59457E-05
3.86053E-06
2.98772E-05
5.4551E-05
7.0161E-05
7.75464E-05
7.93927E-05
7.50286E-05
6.56291E-05
5.47189E-05
4.54871E-05
3.87732E-05
3.44091E-05
3.05486E-05
2.18204E-05
1.0071E-05
-3.35698E-07
-9.06386E-06
-1.4435E-05
-1.39315E-05
-1.25887E-05
-1.25887E-05
-1.25887E-05
-1.07424E-05
-8.39246E-06
-6.21042E-06
-3.18914E-06
1.51064E-06
5.87472E-06
6.04257E-06
1.17494E-06
-2.34989E-06
-5.70687E-06
-8.56031E-06
-1.02388E-05
-1.19173E-05
-1.29244E-05
-1.27565E-05
-1.39315E-05
-1.51064E-05
-1.35958E-05
-1.1078E-05
-7.21752E-06
-2.34989E-06
4.02838E-06
9.56741E-06
1.32601E-05
1.94705E-05
2.75273E-05
3.27306E-05
3.42412E-05
3.44091E-05
3.30663E-05
3.13878E-05
2.87022E-05
2.71916E-05
2.6688E-05
2.50095E-05
2.26596E-05
2.06455E-05
1.46029E-05
5.20333E-06
-1.51064E-06
-1.51064E-06
3.18914E-06
8.22461E-06
8.05676E-06
5.87472E-06
7.04967E-06
9.90311E-06
1.05745E-05
8.39246E-06
5.87472E-06
4.69978E-06
6.54612E-06
1.04067E-05
1.24208E-05
1.15816E-05
7.88891E-06
-1.51064E-06
-1.19173E-05
-1.62814E-05
-1.561E-05
-1.27565E-05
-7.88891E-06
-8.39246E-07
1.84634E-06
-1.67849E-07
-2.34989E-06
-2.01419E-06
8.39246E-07
6.21042E-06
1.32601E-05
2.51774E-05
4.0116E-05
5.33761E-05
6.49577E-05
7.45251E-05
8.10712E-05
8.74495E-05
9.3492E-05
9.55062E-05
9.31563E-05
7.97284E-05
5.62295E-05
3.07164E-05
9.06386E-06
-6.37827E-06
-2.16526E-05
-3.52483E-05
-4.54871E-05
-5.63973E-05
-7.10002E-05
-7.73785E-05
-7.06645E-05
-5.99222E-05
-4.54871E-05
-2.40024E-05
1.17494E-06
2.85344E-05
5.47189E-05
7.26787E-05
8.00641E-05
7.83856E-05
7.03288E-05
6.02579E-05
5.01869E-05
4.26337E-05
3.6759E-05
3.10521E-05
2.60166E-05
2.36667E-05
2.09812E-05
9.90311E-06
-5.53902E-06
-1.62814E-05
-1.94705E-05
-1.72885E-05
-1.19173E-05
-3.18914E-06
9.90311E-06
1.98062E-05
2.19882E-05
2.03098E-05
1.82956E-05
1.52743E-05
1.09102E-05
3.69268E-06
-8.22461E-06
-1.93027E-05
-2.26596E-05
-1.52743E-05
-5.03548E-07
1.32601E-05
1.8967E-05
1.72885E-05
9.23171E-06
3.86053E-06
2.51774E-06
1.17494E-06
-3.52483E-06
-6.88182E-06
-8.72816E-06
-8.22461E-06
-7.21752E-06
-6.54612E-06
-5.70687E-06
-5.53902E-06
-7.55322E-06
-8.56031E-06
-9.56741E-06
-9.56741E-06
-9.23171E-06
-1.0071E-05
-1.34279E-05
-1.7792E-05
-2.38346E-05
-2.93736E-05
-2.85344E-05
-1.96384E-05
-3.02129E-06
1.66171E-05
3.92767E-05
6.29435E-05
7.87213E-05
8.14069E-05
7.60357E-05
6.86503E-05
5.75723E-05
4.53193E-05
3.57519E-05
2.93736E-05
2.43381E-05
1.96384E-05
1.49386E-05
8.89601E-06
3.69268E-06
5.03548E-07
-1.51064E-06
-1.67849E-07
3.52483E-06
8.56031E-06
9.90311E-06
7.21752E-06
5.87472E-06
7.21752E-06
1.05745E-05
1.19173E-05
1.02388E-05
1.12459E-05
1.39315E-05
1.561E-05
1.4435E-05
1.35958E-05
1.25887E-05
1.15816E-05
1.2253E-05
1.42672E-05
1.59457E-05
1.46029E-05
8.56031E-06
3.18914E-06
3.35698E-07
0
1.84634E-06
2.51774E-06
2.01419E-06
1.84634E-06
1.84634E-06
3.35698E-07
1.84634E-06
6.88182E-06
8.22461E-06
7.55322E-06
6.54612E-06
6.88182E-06
9.23171E-06
9.23171E-06
7.55322E-06
6.88182E-06
6.37827E-06
8.56031E-06
1.32601E-05
1.7792E-05
2.26596E-05
3.07164E-05
3.57519E-05
3.18914E-05
2.50095E-05
2.03098E-05
1.59457E-05
9.73526E-06
4.86763E-06
3.52483E-06
2.85344E-06
2.18204E-06
5.20333E-06
1.04067E-05
1.15816E-05
1.02388E-05
1.04067E-05
9.56741E-06
3.86053E-06
-1.67849E-07
2.51774E-06
9.73526E-06
1.71206E-05
1.76242E-05
9.23171E-06
-2.34989E-06
-1.12459E-05
-1.86313E-05
-2.7863E-05
-3.57519E-05
-3.92767E-05
-3.40734E-05
-1.29244E-05
1.86313E-05
4.93477E-05
6.73075E-05
6.83146E-05
6.10971E-05
5.62295E-05
5.08583E-05
4.49836E-05
3.99481E-05
3.47448E-05
3.15557E-05
3.42412E-05
3.77661E-05
3.65911E-05
3.15557E-05
2.58488E-05
2.13169E-05
1.71206E-05
9.39956E-06
1.51064E-06
-4.53193E-06
-6.88182E-06
-6.37827E-06
-5.37118E-06
-4.86763E-06
-2.34989E-06
3.18914E-06
9.90311E-06
1.561E-05
1.93027E-05
2.24918E-05
2.3331E-05
2.3331E-05
2.50095E-05
2.46738E-05
1.96384E-05
1.39315E-05
1.12459E-05
9.73526E-06
7.21752E-06
5.20333E-06
2.51774E-06
1.17494E-06
-1.84634E-06
-4.69978E-06
-4.86763E-06
-7.38537E-06
-1.57778E-05
-2.26596E-05
-2.23239E-05
-1.69528E-05
-9.23171E-06
-1.51064E-06
3.86053E-06
5.20333E-06
4.53193E-06
4.53193E-06
8.05676E-06
1.19173E-05
1.25887E-05
1.1078E-05
6.88182E-06
1.67849E-07
-5.53902E-06
-9.23171E-06
-1.19173E-05
-1.12459E-05
-8.89601E-06
-5.53902E-06
-1.17494E-06
1.17494E-06
-1.67849E-07
-5.03548E-07
7.21752E-06
1.91348E-05
2.46738E-05
2.40024E-05
2.16526E-05
2.26596E-05
2.55131E-05
2.75273E-05
3.23949E-05
4.3473E-05
5.33761E-05
5.87472E-05
5.95865E-05
5.55581E-05
4.81727E-05
3.8941E-05
3.0045E-05
2.40024E-05
2.23239E-05
2.06455E-05
1.59457E-05
8.22461E-06
-1.67849E-06
-7.88891E-06
-9.06386E-06
-1.02388E-05
-1.29244E-05
-1.42672E-05
-1.42672E-05
-1.32601E-05
-1.14137E-05
-1.09102E-05
-1.2253E-05
-1.29244E-05
-1.05745E-05
-6.21042E-06
-4.02838E-06
-2.51774E-06
-1.51064E-06
-4.36408E-06
-8.39246E-06
-8.22461E-06
-1.67849E-07
1.561E-05
3.3402E-05
5.01869E-05
6.37827E-05
7.2343E-05
7.63714E-05
7.10002E-05
5.80758E-05
4.41443E-05
3.15557E-05
1.98062E-05
9.06386E-06
1.51064E-06
-5.03548E-07
-6.71397E-07
8.39246E-07
2.85344E-06
2.18204E-06
1.0071E-06
5.03548E-07
0
6.71397E-07
1.84634E-06
3.52483E-06
7.21752E-06
1.05745E-05
1.30922E-05
1.51064E-05
1.46029E-05
1.02388E-05
3.86053E-06
-1.67849E-07
2.51774E-06
9.39956E-06
1.37636E-05
1.35958E-05
1.32601E-05
1.24208E-05
6.54612E-06
2.18204E-06
1.84634E-06
6.54612E-06
1.15816E-05
1.30922E-05
1.15816E-05
1.09102E-05
9.90311E-06
3.18914E-06
-3.69268E-06
-5.87472E-06
-4.19623E-06
-2.85344E-06
-2.34989E-06
-3.86053E-06
-5.87472E-06
-8.56031E-06
-1.42672E-05
-2.08133E-05
-2.26596E-05
-1.8967E-05
-1.42672E-05
-7.55322E-06
-1.67849E-07
5.87472E-06
1.32601E-05
2.56809E-05
3.94446E-05
5.15297E-05
6.02579E-05
6.69719E-05
6.86503E-05
6.26078E-05
5.13619E-05
4.04517E-05
3.3402E-05
2.80308E-05
2.29953E-05
1.8967E-05
1.27565E-05
4.36408E-06
-1.51064E-06
-4.69978E-06
-4.86763E-06
-3.86053E-06
-3.69268E-06
-4.19623E-06
-1.34279E-06
2.51774E-06
4.19623E-06
4.86763E-06
8.72816E-06
1.27565E-05
1.25887E-05
9.90311E-06
6.54612E-06
5.20333E-06
6.88182E-06
8.56031E-06
8.56031E-06
8.89601E-06
8.89601E-06
1.02388E-05
1.05745E-05
8.39246E-06
3.35698E-06
-4.69978E-06
-1.49386E-05
-2.03098E-05
-1.82956E-05
-1.35958E-05
-1.2253E-05
-1.29244E-05
-1.05745E-05
-4.19623E-06
6.54612E-06
1.96384E-05
3.47448E-05
5.42153E-05
6.96574E-05
7.77142E-05
7.70428E-05
7.21752E-05
6.63005E-05
5.87472E-05
4.7837E-05
3.47448E-05
2.29953E-05
1.12459E-05
2.34989E-06
-2.85344E-06
-9.23171E-06
-1.42672E-05
-1.69528E-05
-1.76242E-05
-1.52743E-05
-1.15816E-05
-6.88182E-06
5.03548E-07
7.88891E-06
1.05745E-05
1.25887E-05
1.47707E-05
1.86313E-05
2.40024E-05
2.58488E-05
2.19882E-05
1.86313E-05
1.40993E-05
2.85344E-06
-9.56741E-06
-1.8967E-05
-2.58488E-05
-2.60166E-05
-1.71206E-05
1.67849E-07
1.82956E-05
3.03807E-05
3.6759E-05
3.91089E-05
3.69268E-05
3.3402E-05
3.23949E-05
3.52483E-05
3.91089E-05
4.0116E-05
3.64233E-05
2.76951E-05
1.59457E-05
8.72816E-06
7.88891E-06
6.37827E-06
1.67849E-07
-7.55322E-06
-1.15816E-05
-1.19173E-05
-1.2253E-05
-1.561E-05
-2.03098E-05
-2.16526E-05
-2.06455E-05
-1.67849E-05
-1.20851E-05
-7.88891E-06
-4.86763E-06
-2.18204E-06
1.17494E-06
7.04967E-06
1.30922E-05
1.86313E-05
2.36667E-05
2.87022E-05
3.20592E-05
3.32342E-05
3.3402E-05
3.05486E-05
2.71916E-05
2.46738E-05
2.28275E-05
2.13169E-05
1.52743E-05
4.53193E-06
-4.36408E-06
-8.39246E-06
-9.56741E-06
-8.22461E-06
-6.21042E-06
-3.18914E-06
-1.51064E-06
-1.67849E-06
0
7.21752E-06
1.76242E-05
2.60166E-05
3.10521E-05
3.70947E-05
4.21302E-05
3.99481E-05
3.30663E-05
2.85344E-05
2.73594E-05
2.73594E-05
2.80308E-05
2.83665E-05
2.50095E-05
1.84634E-05
6.54612E-06
-5.03548E-06
-8.22461E-06
-2.85344E-06
1.17494E-06
2.34989E-06
6.71397E-07
-1.0071E-06
-8.39246E-07
-8.39246E-07
-3.52483E-06
-6.88182E-06
-8.39246E-06
-6.37827E-06
-4.53193E-06
-1.84634E-06
4.36408E-06
1.29244E-05
1.8967E-05
1.96384E-05
1.46029E-05
8.56031E-06
7.72107E-06
9.23171E-06
7.04967E-06
2.51774E-06
3.35698E-07
-4.19623E-06
-8.89601E-06
-8.39246E-06
-5.20333E-06
-5.53902E-06
-1.02388E-05
-1.64492E-05
-1.71206E-05
-1.15816E-05
-2.01419E-06
9.23171E-06
2.09812E-05
3.3402E-05
4.63264E-05
5.75723E-05
6.29435E-05
6.05936E-05
5.42153E-05
4.75013E-05
4.21302E-05
3.82696E-05
3.94446E-05
3.97803E-05
3.13878E-05
1.57778E-05
2.01419E-06
-3.69268E-06
-6.88182E-06
-9.56741E-06
-1.09102E-05
-8.89601E-06
-2.51774E-06
7.88891E-06
1.84634E-05
2.3331E-05
2.09812E-05
1.79599E-05
1.7792E-05
2.13169E-05
2.26596E-05
1.98062E-05
1.46029E-05
1.25887E-05
1.12459E-05
6.88182E-06
1.67849E-07
-6.88182E-06
-1.35958E-05
-1.59457E-05
-1.29244E-05
-1.05745E-05
-1.12459E-05
-1.09102E-05
-8.22461E-06
-7.88891E-06
-7.04967E-06
-5.03548E-07
9.23171E-06
2.19882E-05
3.50805E-05
4.17945E-05
4.12909E-05
4.0116E-05
4.04517E-05
3.97803E-05
3.39055E-05
2.83665E-05
2.63523E-05
2.4506E-05
2.13169E-05
1.59457E-05
1.17494E-05
8.56031E-06
4.53193E-06
3.35698E-07
-6.71397E-07
0
-1.51064E-06
-1.51064E-06
0
1.0071E-06
1.0071E-06
6.71397E-07
-3.18914E-06
-6.54612E-06
-8.56031E-06
-9.56741E-06
-8.22461E-06
-5.03548E-07
1.09102E-05
2.13169E-05
2.3331E-05
2.40024E-05
3.10521E-05
3.64233E-05
3.44091E-05
2.46738E-05
1.46029E-05
8.56031E-06
5.53902E-06
5.87472E-06
7.55322E-06
7.04967E-06
6.54612E-06
1.12459E-05
1.66171E-05
1.86313E-05
1.52743E-05
7.88891E-06
4.02838E-06
6.21042E-06
9.90311E-06
1.15816E-05
1.02388E-05
7.04967E-06
3.52483E-06
1.84634E-06
1.17494E-06
1.51064E-06
3.86053E-06
5.20333E-06
4.86763E-06
2.85344E-06
1.51064E-06
3.69268E-06
5.20333E-06
3.69268E-06
8.39246E-07
2.51774E-06
7.88891E-06
1.51064E-05
2.26596E-05
3.10521E-05
3.60876E-05
3.39055E-05
2.87022E-05
2.75273E-05
2.7863E-05
2.51774E-05
2.13169E-05
1.82956E-05
1.2253E-05
5.70687E-06
1.67849E-06
-1.0071E-06
-1.51064E-06
1.51064E-06
8.56031E-06
1.91348E-05
2.7863E-05
3.27306E-05
3.47448E-05
3.18914E-05
2.23239E-05
1.25887E-05
6.54612E-06
3.18914E-06
1.17494E-06
0
-5.03548E-07
-1.17494E-06
-1.84634E-06
-3.18914E-06
-6.04257E-06
-9.23171E-06
-9.73526E-06
-9.23171E-06
-1.12459E-05
-1.35958E-05
-1.39315E-05
-1.15816E-05
-6.37827E-06
-5.03548E-07
3.18914E-06
7.55322E-06
1.4435E-05
2.36667E-05
3.10521E-05
3.64233E-05
4.09552E-05
4.51514E-05
4.28016E-05
3.69268E-05
3.3402E-05
3.27306E-05
3.18914E-05
3.0045E-05
2.71916E-05
2.51774E-05
2.29953E-05
1.79599E-05
9.90311E-06
6.21042E-06
5.03548E-06
3.86053E-06
4.53193E-06
8.56031E-06
1.40993E-05
1.66171E-05
1.49386E-05
1.29244E-05
1.09102E-05
7.72107E-06
5.87472E-06
6.54612E-06
7.55322E-06
5.53902E-06
1.84634E-06
5.03548E-07
1.67849E-06
2.51774E-06
8.39246E-07
-4.86763E-06
-1.2253E-05
-1.62814E-05
-1.52743E-05
-1.4435E-05
-1.35958E-05
-1.2253E-05
-1.24208E-05
-9.56741E-06
-5.87472E-06
3.35698E-07
1.17494E-05
2.34989E-05
2.93736E-05
3.23949E-05
3.50805E-05
3.87732E-05
4.48157E-05
5.22011E-05
5.89151E-05
6.16007E-05
5.62295E-05
4.81727E-05
4.28016E-05
3.45769E-05
1.86313E-05
6.71397E-07
-9.73526E-06
-1.39315E-05
-1.59457E-05
-1.4435E-05
-1.0071E-05
-5.03548E-06
-1.84634E-06
4.36408E-06
1.02388E-05
1.42672E-05
1.52743E-05
1.37636E-05
9.39956E-06
1.51064E-06
-4.53193E-06
-1.51064E-06
5.20333E-06
5.70687E-06
-1.17494E-06
-7.55322E-06
-1.15816E-05
-1.40993E-05
-1.35958E-05
-1.0071E-05
-4.86763E-06
4.53193E-06
1.84634E-05
3.37377E-05
4.71656E-05
5.20333E-05
4.7837E-05
4.07874E-05
3.42412E-05
2.76951E-05
1.82956E-05
3.86053E-06
-1.25887E-05
-2.43381E-05
-2.97093E-05
-2.97093E-05
-2.56809E-05
-1.94705E-05
-1.24208E-05
-4.86763E-06
2.34989E-06
7.88891E-06
1.32601E-05
2.06455E-05
2.98772E-05
3.60876E-05
3.77661E-05
3.6759E-05
3.60876E-05
3.87732E-05
4.21302E-05
4.06195E-05
3.54162E-05
3.02129E-05
2.56809E-05
2.06455E-05
1.49386E-05
1.1078E-05
1.02388E-05
9.90311E-06
7.21752E-06
3.69268E-06
-3.35698E-07
-2.01419E-06
1.17494E-06
5.20333E-06
5.87472E-06
3.86053E-06
2.18204E-06
3.86053E-06
7.88891E-06
9.06386E-06
6.71397E-06
7.04967E-06
9.23171E-06
9.73526E-06
9.06386E-06
9.06386E-06
7.88891E-06
6.04257E-06
5.03548E-06
9.73526E-06
1.59457E-05
2.13169E-05
2.80308E-05
3.10521E-05
2.7863E-05
2.40024E-05
1.99741E-05
1.59457E-05
1.39315E-05
1.1078E-05
7.21752E-06
2.18204E-06
-1.51064E-06
-2.85344E-06
-3.18914E-06
-4.86763E-06
-5.20333E-06
-3.18914E-06
-1.17494E-06
-6.71397E-07
3.52483E-06
1.0071E-05
1.12459E-05
6.37827E-06
3.35698E-07
-1.84634E-06
-1.67849E-06
-3.35698E-07
4.36408E-06
8.72816E-06
1.14137E-05
1.59457E-05
1.96384E-05
1.93027E-05
1.62814E-05
9.23171E-06
2.01419E-06
1.67849E-07
1.67849E-07
-3.86053E-06
-9.39956E-06
-1.15816E-05
-9.39956E-06
-1.17494E-06
1.32601E-05
2.6688E-05
3.44091E-05
3.69268E-05
3.47448E-05
3.10521E-05
2.40024E-05
1.72885E-05
8.22461E-06
2.01419E-06
2.51774E-06
9.23171E-06
2.19882E-05
3.54162E-05
4.3473E-05
4.81727E-05
4.98512E-05
4.68299E-05
4.24659E-05
4.0116E-05
3.50805E-05
2.83665E-05
2.34989E-05
1.91348E-05
1.51064E-05
1.05745E-05
3.35698E-06
-1.67849E-06
-1.51064E-06
-3.35698E-07
3.35698E-07
8.39246E-07
2.51774E-06
4.19623E-06
3.18914E-06
1.17494E-06
2.34989E-06
5.03548E-06
5.87472E-06
3.69268E-06
-3.35698E-07
-1.67849E-06
2.18204E-06
6.37827E-06
7.21752E-06
4.69978E-06
5.03548E-07
-1.0071E-06
2.34989E-06
5.20333E-06
4.36408E-06
1.51064E-06
-1.67849E-06
-3.52483E-06
-5.03548E-07
6.21042E-06
1.17494E-05
1.82956E-05
2.40024E-05
2.73594E-05
2.70237E-05
2.58488E-05
2.65202E-05
2.73594E-05
2.50095E-05
2.03098E-05
1.59457E-05
1.24208E-05
1.02388E-05
6.88182E-06
5.20333E-06
6.21042E-06
4.86763E-06
2.18204E-06
1.34279E-06
2.51774E-06
3.86053E-06
2.34989E-06
-3.35698E-07
1.51064E-06
7.21752E-06
1.19173E-05
1.49386E-05
1.52743E-05
1.37636E-05
1.05745E-05
7.88891E-06
5.53902E-06
3.52483E-06
2.51774E-06
1.51064E-06
3.35698E-07
-2.34989E-06
-6.04257E-06
-6.88182E-06
-2.51774E-06
1.51064E-06
4.36408E-06
6.54612E-06
1.05745E-05
1.81277E-05
2.53452E-05
3.07164E-05
3.20592E-05
2.90379E-05
2.6688E-05
2.73594E-05
2.61845E-05
2.29953E-05
2.13169E-05
2.23239E-05
2.24918E-05
2.01419E-05
1.72885E-05
1.7792E-05
1.96384E-05
2.04776E-05
1.96384E-05
1.72885E-05
1.57778E-05
1.39315E-05
1.2253E-05
1.05745E-05
8.56031E-06
5.87472E-06
3.52483E-06
1.17494E-06
-1.84634E-06
-5.53902E-06
-6.88182E-06
-6.37827E-06
-4.53193E-06
-5.03548E-07
3.35698E-07
-5.87472E-06
-1.32601E-05
-1.62814E-05
-1.69528E-05
-1.561E-05
-1.09102E-05
-4.53193E-06
2.18204E-06
7.72107E-06
9.06386E-06
7.88891E-06
1.1078E-05
2.06455E-05
3.18914E-05
3.87732E-05
3.87732E-05
3.54162E-05
3.20592E-05
3.07164E-05
3.37377E-05
4.0116E-05
4.81727E-05
5.75723E-05
6.16007E-05
5.74044E-05
4.71656E-05
3.60876E-05
2.56809E-05
1.64492E-05
9.56741E-06
2.51774E-06
-1.17494E-06
1.51064E-06
6.54612E-06
9.06386E-06
8.22461E-06
4.69978E-06
3.52483E-06
6.21042E-06
8.22461E-06
9.90311E-06
1.04067E-05
4.53193E-06
-6.88182E-06
-1.8967E-05
-2.70237E-05
-3.25628E-05
-3.60876E-05
-3.64233E-05
-3.47448E-05
-3.17235E-05
-2.83665E-05
-2.3331E-05
-1.74563E-05
-9.90311E-06
2.51774E-06
1.86313E-05
3.60876E-05
5.15297E-05
6.22721E-05
6.8986E-05
6.86503E-05
5.85794E-05
4.64942E-05
3.70947E-05
2.73594E-05
1.67849E-05
8.56031E-06
4.19623E-06
3.18914E-06
2.51774E-06
-5.03548E-07
-2.51774E-06
-2.85344E-06
-1.84634E-06
1.84634E-06
7.21752E-06
9.73526E-06
8.89601E-06
8.22461E-06
7.55322E-06
5.20333E-06
3.86053E-06
6.04257E-06
8.39246E-06
9.23171E-06
9.23171E-06
1.25887E-05
1.47707E-05
1.47707E-05
1.49386E-05
1.35958E-05
1.09102E-05
9.90311E-06
1.04067E-05
1.05745E-05
1.29244E-05
1.42672E-05
1.19173E-05
7.38537E-06
4.53193E-06
5.53902E-06
7.21752E-06
6.88182E-06
3.35698E-06
2.68559E-06
5.53902E-06
7.55322E-06
2.85344E-06
-1.84634E-06
1.67849E-07
3.69268E-06
5.87472E-06
7.38537E-06
9.06386E-06
9.23171E-06
9.56741E-06
1.29244E-05
1.84634E-05
2.40024E-05
2.87022E-05
3.13878E-05
3.27306E-05
3.18914E-05
2.80308E-05
2.61845E-05
2.53452E-05
2.24918E-05
1.81277E-05
1.24208E-05
6.88182E-06
2.51774E-06
-1.51064E-06
-5.20333E-06
-8.22461E-06
-8.22461E-06
-3.52483E-06
1.17494E-06
2.51774E-06
3.18914E-06
4.53193E-06
6.21042E-06
8.89601E-06
1.09102E-05
1.12459E-05
1.25887E-05
1.49386E-05
1.86313E-05
2.29953E-05
2.38346E-05
1.99741E-05
1.24208E-05
5.03548E-06
2.18204E-06
5.53902E-06
7.55322E-06
5.70687E-06
2.18204E-06
-1.51064E-06
-1.67849E-07
5.20333E-06
1.35958E-05
2.80308E-05
4.41443E-05
5.22011E-05
5.18654E-05
4.76692E-05
4.11231E-05
3.3402E-05
2.53452E-05
1.79599E-05
1.19173E-05
6.21042E-06
1.51064E-06
-2.34989E-06
-7.21752E-06
-1.05745E-05
-1.27565E-05
-1.71206E-05
-2.03098E-05
-1.46029E-05
-2.85344E-06
7.88891E-06
1.66171E-05
2.53452E-05
3.18914E-05
3.30663E-05
3.20592E-05
3.08843E-05
3.0045E-05
2.85344E-05
2.51774E-05
2.16526E-05
1.99741E-05
2.08133E-05
1.99741E-05
1.91348E-05
1.82956E-05
1.69528E-05
1.52743E-05
1.76242E-05
2.04776E-05
1.86313E-05
1.46029E-05
6.54612E-06
-1.67849E-06
-5.53902E-06
-8.72816E-06
-1.14137E-05
-1.2253E-05
-1.15816E-05
-8.22461E-06
-6.37827E-06
-6.54612E-06
-2.85344E-06
3.18914E-06
5.53902E-06
4.53193E-06
3.18914E-06
3.86053E-06
6.37827E-06
7.21752E-06
7.55322E-06
6.88182E-06
6.37827E-06
6.04257E-06
6.37827E-06
7.55322E-06
1.02388E-05
9.23171E-06
5.70687E-06
3.02129E-06
-3.35698E-07
-3.52483E-06
-6.04257E-06
-6.21042E-06
-4.86763E-06
-3.35698E-06
-4.19623E-06
-5.03548E-06
-4.19623E-06
-1.51064E-06
3.86053E-06
1.12459E-05
1.67849E-05
2.31632E-05
3.07164E-05
3.64233E-05
3.84375E-05
3.79339E-05
3.54162E-05
3.20592E-05
3.20592E-05
3.42412E-05
3.49126E-05
3.32342E-05
2.92058E-05
2.50095E-05
2.13169E-05
2.04776E-05
2.03098E-05
1.79599E-05
1.4435E-05
1.2253E-05
1.05745E-05
9.90311E-06
1.1078E-05
1.05745E-05
9.56741E-06
1.05745E-05
1.15816E-05
1.2253E-05
1.39315E-05
1.32601E-05
1.2253E-05
1.04067E-05
6.88182E-06
5.20333E-06
4.86763E-06
5.20333E-06
3.86053E-06
1.17494E-06
1.67849E-07
1.17494E-06
2.34989E-06
1.51064E-06
-2.01419E-06
-4.53193E-06
-6.54612E-06
-8.39246E-06
-1.1078E-05
-1.24208E-05
-1.15816E-05
-1.09102E-05
-6.88182E-06
-3.35698E-07
6.54612E-06
1.59457E-05
2.40024E-05
2.6688E-05
2.26596E-05
1.46029E-05
5.03548E-06
2.85344E-06
8.72816E-06
1.59457E-05
2.3331E-05
3.13878E-05
3.74304E-05
4.3473E-05
4.71656E-05
4.64942E-05
4.14588E-05
3.37377E-05
2.53452E-05
1.72885E-05
1.0071E-05
6.54612E-06
8.56031E-06
1.2253E-05
1.66171E-05
2.03098E-05
2.43381E-05
2.76951E-05
2.76951E-05
2.56809E-05
2.23239E-05
1.82956E-05
1.30922E-05
6.88182E-06
3.35698E-06
-3.35698E-07
-3.35698E-06
-4.02838E-06
-7.04967E-06
-9.56741E-06
-7.72107E-06
-3.86053E-06
5.03548E-07
4.53193E-06
8.56031E-06
1.29244E-05
1.40993E-05
1.15816E-05
1.09102E-05
1.17494E-05
1.09102E-05
8.89601E-06
5.20333E-06
1.17494E-06
1.84634E-06
1.51064E-06
-2.51774E-06
-6.21042E-06
-5.87472E-06
-1.0071E-06
7.88891E-06
1.66171E-05
2.06455E-05
1.96384E-05
1.27565E-05
7.21752E-06
6.21042E-06
4.86763E-06
1.0071E-06
-3.69268E-06
-9.23171E-06
-1.19173E-05
-8.56031E-06
1.17494E-06
1.30922E-05
2.26596E-05
2.87022E-05
3.13878E-05
3.13878E-05
3.13878E-05
3.03807E-05
2.6688E-05
2.3331E-05
2.29953E-05
2.34989E-05
2.53452E-05
2.7863E-05
2.85344E-05
2.6688E-05
2.40024E-05
2.18204E-05
2.31632E-05
2.46738E-05
2.40024E-05
2.13169E-05
2.1149E-05
2.13169E-05
2.26596E-05
2.19882E-05
1.94705E-05
1.93027E-05
1.79599E-05
1.52743E-05
1.15816E-05
5.03548E-06
-5.03548E-06
-1.15816E-05
-1.25887E-05
-1.2253E-05
-1.39315E-05
-1.66171E-05
-1.66171E-05
-1.19173E-05
-6.21042E-06
-1.67849E-07
4.02838E-06
3.18914E-06
1.67849E-06
3.18914E-06
5.70687E-06
6.37827E-06
4.19623E-06
1.51064E-06
2.51774E-06
3.02129E-06
1.17494E-06
3.35698E-06
7.88891E-06
1.25887E-05
1.82956E-05
2.60166E-05
3.13878E-05
3.40734E-05
3.44091E-05
3.0045E-05
2.51774E-05
2.19882E-05
2.03098E-05
1.93027E-05
1.93027E-05
1.67849E-05
8.89601E-06
-3.35698E-07
-4.19623E-06
-2.85344E-06
-1.51064E-06
5.03548E-07
3.18914E-06
7.55322E-06
1.32601E-05
1.81277E-05
2.06455E-05
2.19882E-05
1.82956E-05
1.2253E-05
9.06386E-06
6.37827E-06
3.18914E-06
1.84634E-06
2.51774E-06
4.86763E-06
6.88182E-06
8.56031E-06
9.56741E-06
9.06386E-06
7.21752E-06
7.88891E-06
1.02388E-05
9.90311E-06
6.88182E-06
4.53193E-06
-3.86053E-06
-2.06455E-05
-3.37377E-05
-3.84375E-05
-3.74304E-05
-3.52483E-05
-3.30663E-05
-3.13878E-05
-2.83665E-05
-2.21561E-05
-1.17494E-05
3.18914E-06
2.46738E-05
5.28725E-05
8.03998E-05
0.000101717
0.000113634
0.000114641
0.000110948
0.000105074
9.71847E-05
8.76173E-05
7.57E-05
5.94186E-05
3.91089E-05
1.49386E-05
-1.02388E-05
-2.97093E-05
-4.0116E-05
-4.33051E-05
-4.04517E-05
-3.20592E-05
-2.28275E-05
-1.59457E-05
-1.17494E-05
-6.54612E-06
3.69268E-06
1.62814E-05
2.60166E-05
3.13878E-05
3.28985E-05
3.57519E-05
3.87732E-05
3.96124E-05
3.94446E-05
3.6759E-05
3.122E-05
2.19882E-05
1.04067E-05
-5.03548E-07
-8.89601E-06
-1.2253E-05
-1.24208E-05
-1.37636E-05
-1.76242E-05
-2.03098E-05
-2.16526E-05
-2.73594E-05
-3.57519E-05
-4.11231E-05
-4.17945E-05
-3.65911E-05
-2.7863E-05
-1.96384E-05
-1.15816E-05
5.03548E-07
1.59457E-05
3.03807E-05
4.28016E-05
5.27047E-05
6.09293E-05
6.16007E-05
5.15297E-05
3.6759E-05
2.23239E-05
8.56031E-06
-3.52483E-06
-1.35958E-05
-1.93027E-05
-1.86313E-05
-1.35958E-05
-1.1078E-05
-7.55322E-06
-5.03548E-07
1.05745E-05
2.36667E-05
3.44091E-05
3.97803E-05
4.06195E-05
3.77661E-05
3.27306E-05
2.98772E-05
2.98772E-05
3.5584E-05
4.11231E-05
3.94446E-05
3.54162E-05
3.45769E-05
3.60876E-05
3.54162E-05
3.07164E-05
2.46738E-05
2.24918E-05
2.16526E-05
1.79599E-05
1.35958E-05
5.53902E-06
-9.73526E-06
-2.4506E-05
-3.3402E-05
-3.91089E-05
-4.38086E-05
-4.9012E-05
-5.65652E-05
-6.07614E-05
-5.69009E-05
-4.75013E-05
-3.37377E-05
-1.64492E-05
4.36408E-06
2.40024E-05
3.74304E-05
4.48157E-05
5.20333E-05
5.85794E-05
6.19364E-05
6.39506E-05
6.32792E-05
6.05936E-05
5.32082E-05
4.28016E-05
3.3402E-05
2.19882E-05
7.55322E-06
-4.36408E-06
-1.49386E-05
-2.6688E-05
-3.47448E-05
-3.84375E-05
-4.04517E-05
-4.17945E-05
-4.19623E-05
-3.65911E-05
-1.91348E-05
7.72107E-06
3.94446E-05
6.96574E-05
8.96315E-05
9.44991E-05
8.81208E-05
7.60357E-05
6.29435E-05
5.08583E-05
3.44091E-05
1.25887E-05
-1.09102E-05
-3.5584E-05
-5.92508E-05
-7.60357E-05
-8.67781E-05
-8.81208E-05
-7.53643E-05
-4.75013E-05
-6.04257E-06
4.04517E-05
7.9057E-05
0.00010457
0.000114305
0.000112627
0.000103059
8.54353E-05
6.56291E-05
5.2369E-05
4.14588E-05
2.88701E-05
1.72885E-05
6.21042E-06
-6.54612E-06
-1.94705E-05
-2.98772E-05
-3.74304E-05
-4.14588E-05
-4.17945E-05
-3.44091E-05
-2.23239E-05
-9.90311E-06
1.51064E-06
9.56741E-06
1.24208E-05
1.51064E-05
1.96384E-05
2.34989E-05
2.21561E-05
1.66171E-05
1.29244E-05
8.56031E-06
2.18204E-06
-7.72107E-06
-2.3331E-05
-3.62554E-05
-4.04517E-05
-3.84375E-05
-3.52483E-05
-3.03807E-05
-2.36667E-05
-1.49386E-05
-1.51064E-06
1.81277E-05
4.12909E-05
6.24399E-05
7.83856E-05
8.97993E-05
9.33242E-05
8.62745E-05
7.10002E-05
5.00191E-05
2.70237E-05
6.88182E-06
-5.87472E-06
-1.62814E-05
-2.60166E-05
-2.97093E-05
-2.71916E-05
-2.53452E-05
-2.58488E-05
-2.90379E-05
-2.83665E-05
-1.52743E-05
4.53193E-06
2.29953E-05
3.47448E-05
4.24659E-05
4.7837E-05
5.16976E-05
5.42153E-05
6.16007E-05
7.48608E-05
8.15747E-05
7.50286E-05
6.16007E-05
4.95155E-05
4.0116E-05
2.97093E-05
2.19882E-05
1.52743E-05
2.51774E-06
-6.71397E-06
-1.34279E-06
3.52483E-06
-1.67849E-06
-1.35958E-05
-2.90379E-05
-4.68299E-05
-6.27756E-05
-7.43572E-05
-8.34211E-05
-8.30854E-05
-6.66362E-05
-3.77661E-05
-5.03548E-06
2.16526E-05
4.07874E-05
5.28725E-05
5.43832E-05
4.81727E-05
4.11231E-05
3.13878E-05
1.82956E-05
5.03548E-06
-4.53193E-06
-1.1078E-05
-1.17494E-05
-9.90311E-06
-1.19173E-05
-1.59457E-05
-1.69528E-05
-1.19173E-05
-2.85344E-06
8.56031E-06
1.59457E-05
1.49386E-05
4.69978E-06
-7.55322E-06
-1.69528E-05
-1.52743E-05
0
2.21561E-05
4.81727E-05
7.97284E-05
0.000107927
0.000127733
0.000138811
0.000137301
0.000121355
9.48348E-05
6.54612E-05
3.6759E-05
1.19173E-05
-8.89601E-06
-2.40024E-05
-3.39055E-05
-4.28016E-05
-5.13619E-05
-5.70687E-05
-5.82437E-05
-5.38796E-05
-4.51514E-05
-3.23949E-05
-1.66171E-05
1.17494E-06
1.98062E-05
3.54162E-05
4.19623E-05
4.3473E-05
4.61585E-05
4.98512E-05
5.05226E-05
4.38086E-05
3.13878E-05
1.96384E-05
7.55322E-06
-4.19623E-06
-1.2253E-05
-1.69528E-05
-1.66171E-05
-1.46029E-05
-1.09102E-05
-4.19623E-06
2.85344E-06
6.88182E-06
8.56031E-06
1.05745E-05
1.12459E-05
6.88182E-06
1.67849E-07
-4.19623E-06
-4.19623E-06
-8.39246E-07
6.21042E-06
1.39315E-05
2.26596E-05
3.54162E-05
5.53903E-05
7.16716E-05
7.26787E-05
6.02579E-05
4.61585E-05
3.3402E-05
1.72885E-05
1.67849E-07
-1.09102E-05
-1.57778E-05
-1.62814E-05
-1.2253E-05
-6.21042E-06
-8.39246E-07
1.84634E-06
3.02129E-06
1.67849E-06
-3.35698E-06
-8.22461E-06
-1.12459E-05
-1.2253E-05
-1.29244E-05
-1.37636E-05
-1.05745E-05
-6.37827E-06
-4.86763E-06
-4.53193E-06
-6.21042E-06
-9.56741E-06
-1.27565E-05
-1.04067E-05
-2.18204E-06
1.09102E-05
2.08133E-05
2.13169E-05
1.72885E-05
1.42672E-05
1.76242E-05
2.3331E-05
2.70237E-05
2.53452E-05
2.09812E-05
1.59457E-05
6.54612E-06
-8.22461E-06
-2.29953E-05
-3.20592E-05
-3.5584E-05
-3.59197E-05
-3.28985E-05
-2.50095E-05
-1.09102E-05
1.04067E-05
3.40734E-05
5.22011E-05
6.16007E-05
6.19364E-05
5.38796E-05
4.28016E-05
3.30663E-05
2.70237E-05
2.3331E-05
1.81277E-05
1.66171E-05
1.98062E-05
2.01419E-05
1.7792E-05
1.42672E-05
1.05745E-05
1.09102E-05
1.29244E-05
7.72107E-06
2.51774E-06
4.53193E-06
7.55322E-06
1.05745E-05
1.66171E-05
2.19882E-05
2.40024E-05
2.40024E-05
2.65202E-05
3.37377E-05
4.64942E-05
6.009E-05
7.46929E-05
8.37568E-05
8.09033E-05
6.69719E-05
5.00191E-05
3.60876E-05
2.46738E-05
1.32601E-05
4.86763E-06
6.71397E-07
-1.84634E-06
-5.87472E-06
-1.25887E-05
-2.04776E-05
-2.53452E-05
-2.70237E-05
-2.55131E-05
-2.38346E-05
-2.18204E-05
-2.01419E-05
-2.03098E-05
-2.23239E-05
-2.55131E-05
-2.23239E-05
-9.06386E-06
4.53193E-06
6.37827E-06
-8.39246E-07
-6.54612E-06
-3.86053E-06
5.03548E-07
1.51064E-06
2.18204E-06
3.86053E-06
7.88891E-06
1.1078E-05
1.04067E-05
7.88891E-06
7.21752E-06
9.06386E-06
1.52743E-05
2.56809E-05
3.27306E-05
3.40734E-05
3.6759E-05
3.94446E-05
3.84375E-05
3.40734E-05
2.70237E-05
2.03098E-05
1.49386E-05
1.1078E-05
9.23171E-06
7.88891E-06
7.55322E-06
6.21042E-06
1.67849E-06
-2.85344E-06
-5.20333E-06
-9.06386E-06
-1.29244E-05
-8.56031E-06
-2.34989E-06
1.0071E-06
5.03548E-06
1.15816E-05
1.8967E-05
2.53452E-05
2.7863E-05
2.63523E-05
2.24918E-05
1.72885E-05
1.34279E-05
9.23171E-06
4.53193E-06
2.18204E-06
2.51774E-06
5.20333E-06
1.02388E-05
1.32601E-05
1.30922E-05
1.2253E-05
1.05745E-05
1.19173E-05
1.69528E-05
2.13169E-05
2.40024E-05
2.31632E-05
2.08133E-05
1.72885E-05
1.19173E-05
6.37827E-06
6.37827E-06
7.88891E-06
8.56031E-06
1.15816E-05
1.69528E-05
1.86313E-05
1.91348E-05
1.7792E-05
1.12459E-05
8.72816E-06
1.51064E-05
2.3331E-05
2.6688E-05
2.46738E-05
2.1149E-05
1.66171E-05
1.15816E-05
4.19623E-06
-3.52483E-06
-8.22461E-06
-8.89601E-06
-5.53902E-06
2.51774E-06
8.22461E-06
7.21752E-06
3.52483E-06
4.36408E-06
1.02388E-05
1.96384E-05
2.98772E-05
3.6759E-05
3.87732E-05
3.84375E-05
3.32342E-05
2.13169E-05
1.1078E-05
7.88891E-06
9.23171E-06
1.15816E-05
1.32601E-05
1.62814E-05
2.09812E-05
2.40024E-05
2.26596E-05
1.59457E-05
6.88182E-06
-2.34989E-06
-9.56741E-06
-1.51064E-05
-2.16526E-05
-2.73594E-05
-3.10521E-05
-3.74304E-05
-4.53193E-05
-5.13619E-05
-5.27047E-05
-4.33051E-05
-2.29953E-05
4.53193E-06
3.05486E-05
4.7837E-05
5.84115E-05
6.61326E-05
6.96574E-05
6.56291E-05
5.65652E-05
4.80049E-05
4.41443E-05
3.79339E-05
2.83665E-05
2.21561E-05
2.03098E-05
1.91348E-05
1.59457E-05
1.14137E-05
9.56741E-06
1.05745E-05
1.24208E-05
1.59457E-05
1.93027E-05
1.93027E-05
1.69528E-05
1.32601E-05
9.23171E-06
1.0071E-06
-1.34279E-05
-2.40024E-05
-2.50095E-05
-2.13169E-05
-1.561E-05
-9.23171E-06
-4.69978E-06
2.51774E-06
1.71206E-05
3.13878E-05
3.74304E-05
3.79339E-05
3.39055E-05
2.80308E-05
2.09812E-05
1.05745E-05
-1.17494E-06
-9.56741E-06
-9.39956E-06
-1.84634E-06
7.21752E-06
1.64492E-05
1.91348E-05
1.96384E-05
2.36667E-05
2.97093E-05
3.74304E-05
4.21302E-05
3.86053E-05
3.07164E-05
2.03098E-05
7.88891E-06
-4.86763E-06
-1.49386E-05
-1.82956E-05
-1.54421E-05
-8.56031E-06
1.84634E-06
1.12459E-05
1.99741E-05
2.76951E-05
3.03807E-05
2.6688E-05
1.99741E-05
1.42672E-05
8.89601E-06
6.54612E-06
8.22461E-06
1.1078E-05
1.35958E-05
1.59457E-05
1.82956E-05
1.66171E-05
1.32601E-05
1.35958E-05
1.49386E-05
1.46029E-05
1.40993E-05
1.09102E-05
7.21752E-06
7.04967E-06
7.88891E-06
7.55322E-06
3.35698E-06
-4.19623E-06
-1.02388E-05
-1.35958E-05
-1.79599E-05
-2.13169E-05
-1.93027E-05
-1.09102E-05
2.85344E-06
1.59457E-05
2.13169E-05
1.86313E-05
1.29244E-05
1.05745E-05
1.561E-05
2.26596E-05
2.73594E-05
2.58488E-05
1.57778E-05
3.86053E-06
-5.03548E-06
-9.56741E-06
-1.12459E-05
-1.2253E-05
-1.09102E-05
-6.37827E-06
3.35698E-07
9.90311E-06
2.40024E-05
3.94446E-05
5.15297E-05
5.62295E-05
5.48867E-05
4.95155E-05
4.38086E-05
4.14588E-05
3.87732E-05
3.40734E-05
2.80308E-05
2.34989E-05
1.99741E-05
1.66171E-05
1.05745E-05
3.69268E-06
-1.67849E-06
-5.70687E-06
-3.52483E-06
8.56031E-06
2.03098E-05
2.13169E-05
1.37636E-05
6.21042E-06
2.34989E-06
-6.71397E-07
-2.51774E-06
-3.52483E-06
-5.53902E-06
-9.23171E-06
-1.2253E-05
-1.42672E-05
-1.29244E-05
-9.23171E-06
-7.55322E-06
-6.54612E-06
-4.86763E-06
-3.52483E-06
-4.36408E-06
-7.72107E-06
-8.22461E-06
-6.04257E-06
-2.51774E-06
1.0071E-06
5.53902E-06
1.25887E-05
2.50095E-05
3.52483E-05
3.79339E-05
3.20592E-05
2.23239E-05
1.25887E-05
6.88182E-06
4.19623E-06
-3.35698E-07
-2.18204E-06
-8.39246E-07
-5.53902E-06
-1.02388E-05
-1.0071E-06
1.42672E-05
2.29953E-05
2.46738E-05
2.50095E-05
2.26596E-05
1.82956E-05
1.99741E-05
2.70237E-05
3.23949E-05
3.30663E-05
2.93736E-05
2.34989E-05
2.13169E-05
2.70237E-05
3.74304E-05
4.48157E-05
4.71656E-05
4.58228E-05
4.38086E-05
4.0116E-05
3.3402E-05
2.46738E-05
1.62814E-05
9.23171E-06
4.53193E-06
2.34989E-06
-1.0071E-06
-5.53902E-06
-6.88182E-06
-7.55322E-06
-9.23171E-06
-1.12459E-05
-1.32601E-05
-1.19173E-05
-5.70687E-06
3.18914E-06
1.25887E-05
1.8967E-05
2.19882E-05
2.50095E-05
2.43381E-05
2.1149E-05
1.79599E-05
1.15816E-05
3.35698E-07
-9.23171E-06
-1.46029E-05
-1.66171E-05
-1.561E-05
-1.4435E-05
-1.42672E-05
-1.29244E-05
-9.90311E-06
-5.03548E-06
3.02129E-06
1.25887E-05
2.13169E-05
2.65202E-05
2.6688E-05
2.7863E-05
3.02129E-05
2.87022E-05
2.46738E-05
2.26596E-05
2.19882E-05
2.13169E-05
1.82956E-05
1.24208E-05
7.88891E-06
3.86053E-06
-8.39246E-07
-5.20333E-06
-7.38537E-06
-5.03548E-06
-2.85344E-06
-2.85344E-06
-5.03548E-07
5.20333E-06
5.20333E-06
-1.51064E-06
-7.55322E-06
-1.05745E-05
-1.1078E-05
-9.06386E-06
1.17494E-06
2.43381E-05
4.68299E-05
5.55581E-05
5.1194E-05
4.21302E-05
3.59197E-05
3.3402E-05
2.93736E-05
2.48417E-05
2.36667E-05
2.36667E-05
2.19882E-05
2.24918E-05
2.73594E-05
3.13878E-05
2.73594E-05
1.51064E-05
-1.67849E-06
-1.86313E-05
-2.75273E-05
-2.61845E-05
-1.62814E-05
-5.87472E-06
-1.51064E-06
-2.85344E-06
-4.86763E-06
-2.85344E-06
2.85344E-06
1.39315E-05
2.83665E-05
4.26337E-05
5.58938E-05
6.16007E-05
5.82437E-05
4.54871E-05
2.90379E-05
1.51064E-05
7.04967E-06
3.86053E-06
2.34989E-06
2.34989E-06
4.36408E-06
5.87472E-06
5.87472E-06
4.53193E-06
1.17494E-06
-3.18914E-06
-6.54612E-06
-1.05745E-05
-1.25887E-05
-1.19173E-05
-1.19173E-05
-8.56031E-06
-1.51064E-06
3.52483E-06
5.87472E-06
7.21752E-06
9.90311E-06
1.46029E-05
2.24918E-05
3.40734E-05
4.28016E-05
4.28016E-05
3.74304E-05
2.97093E-05
1.94705E-05
9.73526E-06
2.51774E-06
-2.18204E-06
-3.52483E-06
-3.02129E-06
-2.34989E-06
-1.17494E-06
2.51774E-06
9.23171E-06
1.42672E-05
1.46029E-05
1.46029E-05
1.7792E-05
2.13169E-05
2.04776E-05
1.59457E-05
7.88891E-06
1.34279E-06
3.69268E-06
7.88891E-06
8.56031E-06
7.55322E-06
7.21752E-06
6.54612E-06
-3.35698E-07
-8.56031E-06
-1.24208E-05
-1.19173E-05
-1.1078E-05
-1.02388E-05
-8.39246E-06
-6.21042E-06
-3.52483E-06
-2.18204E-06
-1.67849E-07
7.04967E-06
1.84634E-05
3.27306E-05
4.75013E-05
5.32082E-05
5.15297E-05
4.64942E-05
3.87732E-05
3.05486E-05
2.40024E-05
1.76242E-05
1.15816E-05
5.87472E-06
0
-6.71397E-07
5.53902E-06
8.56031E-06
8.56031E-06
9.90311E-06
1.32601E-05
1.93027E-05
2.75273E-05
3.13878E-05
3.07164E-05
2.75273E-05
2.26596E-05
1.71206E-05
1.02388E-05
1.84634E-06
-4.86763E-06
-6.21042E-06
-3.52483E-06
-1.51064E-06
-2.68559E-06
-2.51774E-06
-1.17494E-06
-1.67849E-07
-1.34279E-06
-4.19623E-06
-5.20333E-06
