0
0
0
0
0
0
0
0
0
0
0
0
0
0
0
0
0
0
0
0
0
0
0
0
0
0
0
0
0
0
0
0
0
0
0
0
0
0
0
0
0
0
0
0
0
0
0
0
0
0
0
0
0
0
0
0
0
0
0
0
0
0
0
0
0
0
0
0
0
0
0
0
0
0
0
0
0
0
1.12459E-05
1.32601E-05
1.59457E-05
1.66171E-05
1.35958E-05
1.05745E-05
1.14137E-05
1.2253E-05
1.25887E-05
1.2253E-05
1.2253E-05
1.12459E-05
1.05745E-05
9.23171E-06
8.89601E-06
1.05745E-05
1.2253E-05
1.35958E-05
1.4435E-05
1.32601E-05
1.19173E-05
1.05745E-05
1.0071E-05
1.05745E-05
1.04067E-05
8.56031E-06
6.37827E-06
4.86763E-06
6.54612E-06
8.56031E-06
9.23171E-06
1.05745E-05
1.27565E-05
1.27565E-05
1.17494E-05
1.19173E-05
1.12459E-05
1.09102E-05
1.19173E-05
1.2253E-05
1.09102E-05
1.04067E-05
1.02388E-05
9.90311E-06
1.02388E-05
1.02388E-05
1.12459E-05
1.19173E-05
1.2253E-05
1.32601E-05
1.39315E-05
1.25887E-05
1.32601E-05
1.46029E-05
1.49386E-05
1.32601E-05
1.12459E-05
1.32601E-05
1.52743E-05
1.62814E-05
1.59457E-05
1.39315E-05
1.24208E-05
1.32601E-05
1.42672E-05
1.27565E-05
9.90311E-06
9.06386E-06
9.39956E-06
9.06386E-06
8.56031E-06
8.56031E-06
7.88891E-06
6.88182E-06
6.37827E-06
7.55322E-06
8.22461E-06
1.05745E-05
1.24208E-05
1.25887E-05
1.19173E-05
9.90311E-06
7.88891E-06
9.23171E-06
1.37636E-05
1.59457E-05
1.59457E-05
1.4435E-05
1.25887E-05
1.30922E-05
1.49386E-05
1.46029E-05
1.52743E-05
1.39315E-05
1.05745E-05
9.90311E-06
9.73526E-06
7.04967E-06
4.19623E-06
3.52483E-06
4.53193E-06
6.88182E-06
8.89601E-06
8.22461E-06
6.54612E-06
5.53902E-06
5.87472E-06
7.38537E-06
8.56031E-06
1.05745E-05
1.24208E-05
1.29244E-05
1.32601E-05
1.32601E-05
1.39315E-05
1.49386E-05
1.561E-05
1.561E-05
1.54421E-05
1.37636E-05
1.19173E-05
1.4435E-05
1.59457E-05
1.32601E-05
1.02388E-05
9.73526E-06
1.30922E-05
1.52743E-05
1.35958E-05
1.17494E-05
1.29244E-05
1.42672E-05
1.52743E-05
1.49386E-05
1.35958E-05
1.52743E-05
1.67849E-05
1.42672E-05
1.14137E-05
7.88891E-06
4.69978E-06
7.21752E-06
8.56031E-06
7.88891E-06
7.88891E-06
6.21042E-06
6.21042E-06
8.22461E-06
9.90311E-06
8.22461E-06
5.03548E-06
5.20333E-06
9.56741E-06
1.19173E-05
1.17494E-05
1.02388E-05
1.15816E-05
1.32601E-05
1.29244E-05
8.56031E-06
3.86053E-06
3.86053E-06
7.04967E-06
1.05745E-05
1.15816E-05
1.05745E-05
1.15816E-05
1.39315E-05
1.51064E-05
1.39315E-05
1.15816E-05
8.89601E-06
7.21752E-06
8.56031E-06
1.32601E-05
1.51064E-05
1.25887E-05
8.89601E-06
8.22461E-06
1.09102E-05
1.35958E-05
1.39315E-05
1.30922E-05
1.15816E-05
1.12459E-05
1.09102E-05
9.90311E-06
1.05745E-05
1.1078E-05
1.12459E-05
1.19173E-05
1.17494E-05
1.12459E-05
1.05745E-05
1.09102E-05
1.2253E-05
1.42672E-05
1.46029E-05
1.37636E-05
1.32601E-05
1.32601E-05
1.32601E-05
1.32601E-05
1.12459E-05
1.05745E-05
1.35958E-05
1.49386E-05
1.42672E-05
1.37636E-05
1.29244E-05
1.30922E-05
1.35958E-05
1.17494E-05
1.15816E-05
1.32601E-05
1.25887E-05
8.22461E-06
6.21042E-06
7.21752E-06
9.90311E-06
1.19173E-05
1.15816E-05
1.12459E-05
9.90311E-06
8.22461E-06
7.21752E-06
8.22461E-06
1.15816E-05
1.42672E-05
1.42672E-05
1.42672E-05
1.39315E-05
1.39315E-05
1.49386E-05
1.46029E-05
1.27565E-05
1.09102E-05
1.02388E-05
7.88891E-06
5.87472E-06
5.87472E-06
7.72107E-06
1.05745E-05
1.05745E-05
9.90311E-06
1.02388E-05
1.04067E-05
9.23171E-06
7.88891E-06
7.88891E-06
7.55322E-06
8.22461E-06
1.05745E-05
1.12459E-05
1.12459E-05
1.12459E-05
1.12459E-05
1.1078E-05
1.1078E-05
1.09102E-05
1.09102E-05
1.12459E-05
1.27565E-05
1.32601E-05
1.32601E-05
1.35958E-05
1.49386E-05
1.46029E-05
1.35958E-05
1.27565E-05
1.20851E-05
1.2253E-05
1.24208E-05
1.30922E-05
1.32601E-05
1.12459E-05
8.39246E-06
9.06386E-06
1.2253E-05
1.35958E-05
1.32601E-05
1.17494E-05
9.23171E-06
7.88891E-06
8.22461E-06
9.73526E-06
9.90311E-06
8.72816E-06
1.04067E-05
1.19173E-05
9.90311E-06
7.88891E-06
7.88891E-06
9.73526E-06
1.05745E-05
1.02388E-05
1.05745E-05
1.2253E-05
1.19173E-05
1.05745E-05
1.15816E-05
1.17494E-05
1.04067E-05
1.1078E-05
1.02388E-05
9.90311E-06
1.12459E-05
1.15816E-05
1.25887E-05
1.32601E-05
1.27565E-05
1.30922E-05
1.32601E-05
1.35958E-05
1.4435E-05
1.40993E-05
1.46029E-05
1.59457E-05
1.29244E-05
8.22461E-06
6.54612E-06
6.88182E-06
7.21752E-06
9.56741E-06
1.12459E-05
9.73526E-06
7.55322E-06
8.56031E-06
1.17494E-05
1.42672E-05
1.46029E-05
1.42672E-05
1.4435E-05
1.2253E-05
9.23171E-06
7.88891E-06
9.23171E-06
1.02388E-05
1.02388E-05
9.23171E-06
7.88891E-06
5.87472E-06
4.53193E-06
7.04967E-06
8.22461E-06
8.56031E-06
7.88891E-06
6.21042E-06
6.88182E-06
8.89601E-06
1.12459E-05
1.05745E-05
9.90311E-06
1.02388E-05
1.02388E-05
1.09102E-05
1.25887E-05
1.37636E-05
1.46029E-05
1.27565E-05
9.90311E-06
8.39246E-06
8.39246E-06
9.56741E-06
1.04067E-05
1.05745E-05
1.25887E-05
1.39315E-05
1.37636E-05
1.37636E-05
1.49386E-05
1.66171E-05
1.72885E-05
1.57778E-05
1.40993E-05
1.39315E-05
1.39315E-05
1.27565E-05
1.24208E-05
1.42672E-05
1.4435E-05
1.42672E-05
1.59457E-05
1.46029E-05
1.04067E-05
9.06386E-06
1.15816E-05
1.39315E-05
1.39315E-05
1.30922E-05
1.24208E-05
1.02388E-05
9.56741E-06
8.89601E-06
9.06386E-06
8.89601E-06
7.88891E-06
8.89601E-06
1.2253E-05
1.29244E-05
1.15816E-05
1.40993E-05
1.49386E-05
1.25887E-05
1.15816E-05
1.12459E-05
1.14137E-05
1.09102E-05
1.02388E-05
9.06386E-06
8.56031E-06
8.05676E-06
9.23171E-06
1.12459E-05
1.12459E-05
1.02388E-05
9.23171E-06
9.23171E-06
1.05745E-05
1.29244E-05
1.19173E-05
9.23171E-06
1.12459E-05
1.46029E-05
1.29244E-05
8.56031E-06
7.55322E-06
1.05745E-05
1.32601E-05
1.39315E-05
1.05745E-05
4.53193E-06
5.03548E-07
2.01419E-06
7.55322E-06
1.05745E-05
1.1078E-05
9.56741E-06
9.06386E-06
1.05745E-05
1.12459E-05
1.14137E-05
1.12459E-05
1.02388E-05
1.12459E-05
1.32601E-05
1.35958E-05
1.46029E-05
1.51064E-05
1.42672E-05
1.4435E-05
1.57778E-05
1.52743E-05
1.49386E-05
1.46029E-05
1.20851E-05
9.23171E-06
7.88891E-06
6.88182E-06
7.21752E-06
9.73526E-06
1.19173E-05
1.39315E-05
1.40993E-05
1.52743E-05
1.59457E-05
1.49386E-05
1.49386E-05
1.62814E-05
1.67849E-05
1.67849E-05
1.59457E-05
1.49386E-05
1.39315E-05
1.19173E-05
8.89601E-06
6.04257E-06
3.02129E-06
1.17494E-06
2.85344E-06
6.88182E-06
1.05745E-05
1.25887E-05
9.73526E-06
5.53902E-06
5.20333E-06
7.55322E-06
1.0071E-05
1.2253E-05
1.19173E-05
1.2253E-05
1.39315E-05
1.46029E-05
1.29244E-05
1.05745E-05
1.05745E-05
1.25887E-05
1.17494E-05
1.04067E-05
1.04067E-05
1.05745E-05
1.05745E-05
1.05745E-05
9.90311E-06
1.02388E-05
1.05745E-05
8.72816E-06
7.55322E-06
8.05676E-06
8.72816E-06
1.12459E-05
1.51064E-05
1.59457E-05
1.47707E-05
1.39315E-05
1.29244E-05
1.46029E-05
1.66171E-05
1.59457E-05
1.4435E-05
1.46029E-05
1.49386E-05
1.35958E-05
1.19173E-05
1.19173E-05
1.30922E-05
1.35958E-05
1.40993E-05
1.35958E-05
1.05745E-05
6.88182E-06
6.54612E-06
9.56741E-06
1.30922E-05
1.30922E-05
1.24208E-05
1.4435E-05
1.59457E-05
1.46029E-05
1.30922E-05
1.25887E-05
1.05745E-05
9.56741E-06
8.89601E-06
7.21752E-06
6.88182E-06
8.39246E-06
1.05745E-05
1.25887E-05
1.39315E-05
1.32601E-05
1.2253E-05
1.19173E-05
1.39315E-05
1.49386E-05
1.25887E-05
1.05745E-05
7.55322E-06
5.70687E-06
4.53193E-06
5.70687E-06
6.54612E-06
8.89601E-06
1.12459E-05
9.90311E-06
7.55322E-06
7.88891E-06
8.89601E-06
9.56741E-06
9.39956E-06
8.56031E-06
9.56741E-06
1.05745E-05
1.02388E-05
9.73526E-06
1.0071E-05
1.09102E-05
1.25887E-05
1.2253E-05
9.56741E-06
7.38537E-06
7.88891E-06
1.05745E-05
1.24208E-05
1.12459E-05
1.05745E-05
1.14137E-05
9.06386E-06
6.21042E-06
4.86763E-06
5.03548E-06
5.20333E-06
5.20333E-06
3.52483E-06
3.52483E-06
5.20333E-06
7.21752E-06
9.23171E-06
1.12459E-05
1.25887E-05
1.39315E-05
1.32601E-05
1.05745E-05
9.23171E-06
1.1078E-05
1.30922E-05
1.39315E-05
1.39315E-05
1.27565E-05
1.15816E-05
1.25887E-05
1.49386E-05
1.561E-05
1.39315E-05
1.39315E-05
1.66171E-05
1.86313E-05
1.8967E-05
1.69528E-05
1.4435E-05
1.51064E-05
1.86313E-05
1.86313E-05
1.64492E-05
1.59457E-05
1.67849E-05
1.72885E-05
1.42672E-05
1.15816E-05
1.19173E-05
1.32601E-05
1.15816E-05
1.05745E-05
1.09102E-05
1.17494E-05
1.40993E-05
1.62814E-05
1.66171E-05
1.51064E-05
1.17494E-05
9.73526E-06
1.0071E-05
1.05745E-05
1.19173E-05
1.02388E-05
7.88891E-06
7.88891E-06
1.05745E-05
1.25887E-05
1.32601E-05
1.24208E-05
1.30922E-05
1.29244E-05
1.05745E-05
9.23171E-06
1.02388E-05
1.09102E-05
8.89601E-06
5.03548E-06
2.85344E-06
4.36408E-06
7.38537E-06
9.23171E-06
8.89601E-06
7.88891E-06
7.88891E-06
9.90311E-06
1.25887E-05
1.2253E-05
1.15816E-05
1.12459E-05
9.06386E-06
8.39246E-06
1.0071E-05
1.19173E-05
1.19173E-05
1.25887E-05
1.2253E-05
1.2253E-05
1.15816E-05
1.1078E-05
1.05745E-05
1.02388E-05
8.89601E-06
8.56031E-06
7.55322E-06
6.21042E-06
8.05676E-06
9.23171E-06
8.56031E-06
6.88182E-06
6.37827E-06
7.04967E-06
7.55322E-06
7.55322E-06
8.39246E-06
9.73526E-06
1.05745E-05
1.1078E-05
1.27565E-05
1.46029E-05
1.59457E-05
1.51064E-05
1.19173E-05
1.12459E-05
1.32601E-05
1.62814E-05
1.62814E-05
1.37636E-05
1.2253E-05
1.1078E-05
8.56031E-06
7.55322E-06
9.73526E-06
1.19173E-05
1.15816E-05
1.1078E-05
1.14137E-05
1.1078E-05
1.02388E-05
1.05745E-05
1.12459E-05
9.90311E-06
7.88891E-06
8.89601E-06
1.17494E-05
1.32601E-05
1.25887E-05
1.19173E-05
1.0071E-05
8.39246E-06
8.56031E-06
8.72816E-06
8.56031E-06
9.56741E-06
1.02388E-05
1.05745E-05
9.73526E-06
1.04067E-05
1.25887E-05
1.54421E-05
1.69528E-05
1.40993E-05
9.56741E-06
8.72816E-06
1.29244E-05
1.54421E-05
1.37636E-05
1.2253E-05
1.05745E-05
1.04067E-05
1.17494E-05
1.19173E-05
1.04067E-05
9.23171E-06
1.04067E-05
1.30922E-05
1.32601E-05
1.15816E-05
1.32601E-05
1.66171E-05
1.64492E-05
1.12459E-05
7.38537E-06
7.04967E-06
9.56741E-06
1.15816E-05
1.27565E-05
1.15816E-05
9.23171E-06
1.0071E-05
1.17494E-05
1.15816E-05
1.15816E-05
1.05745E-05
9.23171E-06
1.04067E-05
1.25887E-05
1.2253E-05
9.73526E-06
8.05676E-06
7.21752E-06
8.22461E-06
9.90311E-06
1.32601E-05
1.72885E-05
1.94705E-05
1.94705E-05
1.7792E-05
1.561E-05
1.46029E-05
1.46029E-05
1.54421E-05
1.79599E-05
1.82956E-05
1.39315E-05
8.89601E-06
6.54612E-06
7.88891E-06
1.12459E-05
1.25887E-05
1.05745E-05
1.17494E-05
1.47707E-05
1.59457E-05
1.30922E-05
9.90311E-06
9.73526E-06
1.15816E-05
1.15816E-05
1.04067E-05
1.05745E-05
1.12459E-05
1.15816E-05
1.40993E-05
1.51064E-05
1.42672E-05
1.47707E-05
1.32601E-05
9.90311E-06
8.72816E-06
8.72816E-06
7.72107E-06
6.88182E-06
6.54612E-06
7.38537E-06
7.55322E-06
6.54612E-06
8.39246E-06
1.04067E-05
1.17494E-05
1.05745E-05
9.73526E-06
9.90311E-06
1.05745E-05
1.05745E-05
1.05745E-05
8.89601E-06
5.03548E-06
1.34279E-06
1.0071E-06
2.18204E-06
4.19623E-06
5.87472E-06
7.21752E-06
7.55322E-06
6.37827E-06
5.20333E-06
6.21042E-06
8.22461E-06
1.02388E-05
1.17494E-05
1.19173E-05
1.04067E-05
1.05745E-05
1.19173E-05
1.17494E-05
1.15816E-05
1.15816E-05
1.25887E-05
1.49386E-05
1.59457E-05
1.42672E-05
1.46029E-05
1.59457E-05
1.57778E-05
1.46029E-05
1.39315E-05
1.51064E-05
1.561E-05
1.32601E-05
1.30922E-05
1.42672E-05
1.51064E-05
1.561E-05
1.66171E-05
1.67849E-05
1.49386E-05
1.40993E-05
1.47707E-05
1.32601E-05
1.19173E-05
1.37636E-05
1.59457E-05
1.67849E-05
1.59457E-05
1.561E-05
1.51064E-05
1.39315E-05
1.32601E-05
1.32601E-05
1.19173E-05
8.89601E-06
5.53902E-06
1.0071E-06
-1.34279E-06
-5.03548E-07
5.03548E-07
2.01419E-06
4.53193E-06
6.37827E-06
1.12459E-05
1.57778E-05
1.62814E-05
1.37636E-05
1.15816E-05
1.12459E-05
1.25887E-05
1.37636E-05
1.29244E-05
1.2253E-05
1.02388E-05
8.56031E-06
1.05745E-05
1.19173E-05
1.30922E-05
1.39315E-05
1.32601E-05
1.29244E-05
1.12459E-05
8.56031E-06
8.39246E-06
7.21752E-06
7.21752E-06
8.89601E-06
7.88891E-06
7.21752E-06
7.55322E-06
6.54612E-06
5.53902E-06
6.54612E-06
7.55322E-06
9.23171E-06
1.05745E-05
1.05745E-05
9.23171E-06
8.56031E-06
8.56031E-06
9.23171E-06
1.02388E-05
9.73526E-06
9.90311E-06
1.02388E-05
1.2253E-05
1.59457E-05
1.76242E-05
1.62814E-05
1.54421E-05
1.49386E-05
1.39315E-05
1.4435E-05
1.561E-05
1.37636E-05
1.2253E-05
9.90311E-06
6.54612E-06
7.21752E-06
8.56031E-06
9.56741E-06
1.2253E-05
1.54421E-05
1.62814E-05
1.71206E-05
1.62814E-05
1.59457E-05
1.32601E-05
9.73526E-06
7.72107E-06
9.23171E-06
1.09102E-05
1.12459E-05
9.90311E-06
9.56741E-06
1.32601E-05
1.59457E-05
1.49386E-05
1.29244E-05
1.19173E-05
1.17494E-05
1.15816E-05
1.15816E-05
1.12459E-05
1.05745E-05
1.27565E-05
1.66171E-05
1.84634E-05
1.71206E-05
1.57778E-05
1.49386E-05
1.32601E-05
1.34279E-05
1.30922E-05
1.30922E-05
1.32601E-05
1.05745E-05
8.72816E-06
6.88182E-06
6.37827E-06
7.55322E-06
9.90311E-06
1.05745E-05
1.12459E-05
1.20851E-05
1.19173E-05
1.15816E-05
1.25887E-05
1.30922E-05
1.2253E-05
1.2253E-05
1.15816E-05
9.90311E-06
1.05745E-05
1.15816E-05
1.05745E-05
1.12459E-05
1.4435E-05
1.52743E-05
1.14137E-05
8.39246E-06
8.89601E-06
9.56741E-06
8.56031E-06
8.72816E-06
9.23171E-06
9.23171E-06
1.14137E-05
1.30922E-05
1.14137E-05
9.90311E-06
7.88891E-06
7.21752E-06
9.06386E-06
1.0071E-05
1.05745E-05
1.05745E-05
9.56741E-06
1.05745E-05
1.35958E-05
1.62814E-05
1.71206E-05
1.59457E-05
1.42672E-05
1.40993E-05
1.35958E-05
1.20851E-05
1.0071E-05
8.89601E-06
9.23171E-06
9.23171E-06
5.87472E-06
2.51774E-06
1.51064E-06
3.52483E-06
5.53902E-06
5.03548E-06
8.39246E-07
-3.35698E-07
3.52483E-06
7.55322E-06
1.05745E-05
1.19173E-05
1.14137E-05
1.12459E-05
1.15816E-05
1.15816E-05
1.24208E-05
1.19173E-05
9.23171E-06
7.88891E-06
9.23171E-06
1.05745E-05
1.32601E-05
1.51064E-05
1.561E-05
1.59457E-05
1.46029E-05
1.15816E-05
1.24208E-05
1.35958E-05
1.32601E-05
1.27565E-05
1.05745E-05
9.06386E-06
8.89601E-06
8.22461E-06
9.56741E-06
1.14137E-05
1.09102E-05
9.06386E-06
1.05745E-05
1.42672E-05
1.47707E-05
1.25887E-05
1.05745E-05
1.12459E-05
1.05745E-05
9.90311E-06
1.15816E-05
1.37636E-05
1.32601E-05
1.15816E-05
1.04067E-05
1.05745E-05
9.73526E-06
8.56031E-06
1.02388E-05
1.32601E-05
1.46029E-05
1.59457E-05
1.74563E-05
1.76242E-05
1.79599E-05
1.93027E-05
1.79599E-05
1.46029E-05
1.42672E-05
1.49386E-05
1.49386E-05
1.42672E-05
1.2253E-05
1.09102E-05
1.05745E-05
1.1078E-05
1.32601E-05
1.35958E-05
1.32601E-05
1.37636E-05
1.30922E-05
1.39315E-05
1.51064E-05
1.49386E-05
1.54421E-05
1.82956E-05
1.86313E-05
1.69528E-05
1.49386E-05
1.35958E-05
1.29244E-05
1.19173E-05
9.90311E-06
7.88891E-06
7.04967E-06
5.53902E-06
2.85344E-06
4.19623E-06
7.04967E-06
7.88891E-06
5.20333E-06
3.52483E-06
5.03548E-06
5.70687E-06
6.21042E-06
7.55322E-06
6.37827E-06
4.53193E-06
4.19623E-06
4.02838E-06
5.87472E-06
8.89601E-06
9.73526E-06
8.39246E-06
7.88891E-06
1.05745E-05
1.32601E-05
1.39315E-05
1.15816E-05
1.05745E-05
1.2253E-05
1.37636E-05
1.30922E-05
1.25887E-05
1.32601E-05
1.49386E-05
1.39315E-05
1.2253E-05
1.32601E-05
1.32601E-05
1.2253E-05
1.19173E-05
1.24208E-05
1.30922E-05
1.39315E-05
1.32601E-05
1.24208E-05
9.23171E-06
4.19623E-06
5.20333E-06
1.2253E-05
1.46029E-05
1.32601E-05
1.42672E-05
1.46029E-05
1.42672E-05
1.51064E-05
1.64492E-05
1.64492E-05
1.561E-05
1.35958E-05
1.25887E-05
1.2253E-05
9.73526E-06
8.56031E-06
1.02388E-05
1.1078E-05
1.15816E-05
1.05745E-05
8.72816E-06
7.04967E-06
6.54612E-06
6.88182E-06
9.23171E-06
9.56741E-06
8.22461E-06
7.55322E-06
8.89601E-06
1.09102E-05
1.02388E-05
9.23171E-06
1.15816E-05
1.32601E-05
1.30922E-05
1.32601E-05
1.29244E-05
1.05745E-05
8.56031E-06
8.22461E-06
9.23171E-06
1.19173E-05
1.39315E-05
1.39315E-05
1.19173E-05
8.22461E-06
7.55322E-06
9.90311E-06
1.29244E-05
1.42672E-05
1.19173E-05
9.56741E-06
1.05745E-05
1.32601E-05
1.32601E-05
1.32601E-05
1.19173E-05
8.72816E-06
8.56031E-06
1.29244E-05
1.51064E-05
1.35958E-05
1.35958E-05
1.14137E-05
1.02388E-05
1.02388E-05
9.90311E-06
9.73526E-06
1.15816E-05
1.32601E-05
1.25887E-05
9.56741E-06
8.56031E-06
1.02388E-05
1.19173E-05
1.12459E-05
1.02388E-05
1.24208E-05
1.62814E-05
1.79599E-05
1.79599E-05
1.76242E-05
1.72885E-05
1.57778E-05
1.39315E-05
1.30922E-05
1.17494E-05
1.05745E-05
1.05745E-05
8.39246E-06
6.21042E-06
7.04967E-06
8.89601E-06
1.02388E-05
1.05745E-05
9.39956E-06
9.23171E-06
9.39956E-06
8.22461E-06
7.55322E-06
6.54612E-06
7.04967E-06
7.88891E-06
7.38537E-06
6.54612E-06
8.22461E-06
1.0071E-05
1.15816E-05
1.15816E-05
1.09102E-05
1.19173E-05
1.24208E-05
1.17494E-05
1.02388E-05
8.89601E-06
7.88891E-06
8.22461E-06
7.88891E-06
7.38537E-06
9.56741E-06
1.05745E-05
1.1078E-05
1.05745E-05
8.56031E-06
7.21752E-06
9.23171E-06
1.12459E-05
1.14137E-05
9.73526E-06
7.88891E-06
9.23171E-06
1.05745E-05
1.12459E-05
1.05745E-05
1.19173E-05
1.2253E-05
1.19173E-05
1.30922E-05
1.39315E-05
1.52743E-05
1.66171E-05
1.57778E-05
1.39315E-05
1.29244E-05
1.35958E-05
1.51064E-05
1.46029E-05
1.52743E-05
1.64492E-05
1.37636E-05
8.22461E-06
7.38537E-06
9.90311E-06
1.27565E-05
1.561E-05
1.42672E-05
1.17494E-05
1.02388E-05
1.19173E-05
1.46029E-05
1.54421E-05
1.46029E-05
1.42672E-05
1.49386E-05
1.4435E-05
1.32601E-05
1.2253E-05
9.90311E-06
1.05745E-05
1.37636E-05
1.39315E-05
1.37636E-05
1.54421E-05
1.561E-05
1.40993E-05
1.09102E-05
7.04967E-06
6.54612E-06
7.88891E-06
8.89601E-06
9.56741E-06
8.56031E-06
7.04967E-06
8.39246E-06
1.05745E-05
9.06386E-06
6.04257E-06
5.87472E-06
8.89601E-06
1.12459E-05
1.17494E-05
1.19173E-05
1.25887E-05
1.32601E-05
1.42672E-05
1.24208E-05
9.90311E-06
1.05745E-05
1.15816E-05
1.09102E-05
1.05745E-05
8.89601E-06
8.22461E-06
7.21752E-06
5.87472E-06
7.21752E-06
8.89601E-06
9.23171E-06
1.02388E-05
1.42672E-05
1.72885E-05
1.52743E-05
9.23171E-06
1.17494E-06
-1.84634E-06
1.84634E-06
6.54612E-06
1.12459E-05
1.39315E-05
1.12459E-05
8.56031E-06
6.88182E-06
5.87472E-06
7.88891E-06
1.1078E-05
1.39315E-05
1.46029E-05
1.30922E-05
1.2253E-05
1.30922E-05
1.39315E-05
1.42672E-05
1.27565E-05
9.90311E-06
9.90311E-06
1.12459E-05
1.19173E-05
1.30922E-05
1.49386E-05
1.52743E-05
1.37636E-05
1.39315E-05
1.42672E-05
1.35958E-05
1.49386E-05
1.72885E-05
1.8967E-05
1.79599E-05
1.62814E-05
1.57778E-05
1.59457E-05
1.49386E-05
1.24208E-05
1.04067E-05
1.0071E-05
1.12459E-05
1.09102E-05
8.56031E-06
6.54612E-06
5.87472E-06
6.54612E-06
8.56031E-06
1.05745E-05
1.17494E-05
1.14137E-05
7.21752E-06
3.35698E-06
4.19623E-06
7.21752E-06
1.05745E-05
1.02388E-05
8.89601E-06
9.90311E-06
1.05745E-05
1.12459E-05
1.35958E-05
1.39315E-05
1.20851E-05
1.05745E-05
9.56741E-06
9.56741E-06
1.19173E-05
1.32601E-05
1.49386E-05
1.59457E-05
1.37636E-05
1.02388E-05
9.90311E-06
1.17494E-05
1.35958E-05
1.27565E-05
9.73526E-06
9.90311E-06
1.24208E-05
1.1078E-05
1.05745E-05
1.27565E-05
1.42672E-05
1.42672E-05
1.25887E-05
1.15816E-05
1.29244E-05
1.29244E-05
1.19173E-05
1.19173E-05
1.05745E-05
9.06386E-06
9.23171E-06
8.56031E-06
6.21042E-06
7.04967E-06
9.06386E-06
1.04067E-05
1.05745E-05
1.05745E-05
1.12459E-05
1.17494E-05
1.12459E-05
1.1078E-05
1.2253E-05
1.32601E-05
1.29244E-05
1.32601E-05
1.29244E-05
1.2253E-05
1.2253E-05
1.27565E-05
1.4435E-05
1.54421E-05
1.52743E-05
1.42672E-05
1.32601E-05
1.39315E-05
1.59457E-05
1.57778E-05
1.46029E-05
1.42672E-05
1.19173E-05
9.06386E-06
8.39246E-06
7.88891E-06
6.54612E-06
6.37827E-06
6.71397E-06
8.89601E-06
1.09102E-05
1.27565E-05
1.39315E-05
1.32601E-05
1.24208E-05
1.20851E-05
9.73526E-06
7.04967E-06
9.56741E-06
1.25887E-05
1.32601E-05
1.27565E-05
9.23171E-06
8.39246E-06
1.15816E-05
1.29244E-05
1.19173E-05
1.02388E-05
8.56031E-06
9.39956E-06
1.15816E-05
1.19173E-05
1.17494E-05
1.05745E-05
9.90311E-06
1.0071E-05
1.15816E-05
1.2253E-05
1.17494E-05
9.23171E-06
7.55322E-06
9.56741E-06
1.02388E-05
9.73526E-06
1.2253E-05
1.59457E-05
1.52743E-05
1.2253E-05
9.39956E-06
9.23171E-06
1.05745E-05
1.2253E-05
1.17494E-05
9.23171E-06
7.38537E-06
9.23171E-06
1.39315E-05
1.59457E-05
1.54421E-05
1.29244E-05
9.90311E-06
8.72816E-06
7.21752E-06
7.88891E-06
8.89601E-06
9.23171E-06
9.23171E-06
1.04067E-05
8.89601E-06
6.04257E-06
5.20333E-06
6.04257E-06
8.05676E-06
1.05745E-05
1.02388E-05
9.23171E-06
1.19173E-05
1.561E-05
1.51064E-05
1.25887E-05
8.89601E-06
7.21752E-06
7.88891E-06
1.05745E-05
1.30922E-05
1.15816E-05
6.88182E-06
5.87472E-06
7.55322E-06
8.89601E-06
1.02388E-05
1.19173E-05
1.37636E-05
1.46029E-05
1.24208E-05
9.56741E-06
9.23171E-06
9.56741E-06
8.89601E-06
9.56741E-06
1.02388E-05
1.05745E-05
1.2253E-05
1.32601E-05
1.35958E-05
1.40993E-05
1.29244E-05
1.17494E-05
1.09102E-05
1.12459E-05
1.25887E-05
1.29244E-05
1.19173E-05
1.2253E-05
1.25887E-05
1.15816E-05
1.12459E-05
1.12459E-05
1.02388E-05
1.04067E-05
1.12459E-05
9.23171E-06
8.72816E-06
1.1078E-05
1.29244E-05
1.49386E-05
1.59457E-05
1.59457E-05
1.49386E-05
1.40993E-05
1.52743E-05
1.76242E-05
1.66171E-05
1.42672E-05
1.25887E-05
1.19173E-05
1.12459E-05
1.04067E-05
9.90311E-06
1.05745E-05
1.25887E-05
1.30922E-05
1.30922E-05
1.09102E-05
8.56031E-06
9.56741E-06
1.05745E-05
1.19173E-05
1.40993E-05
1.49386E-05
1.29244E-05
1.05745E-05
8.56031E-06
9.23171E-06
1.17494E-05
1.32601E-05
1.4435E-05
1.52743E-05
1.2253E-05
8.56031E-06
6.54612E-06
6.21042E-06
7.55322E-06
7.88891E-06
6.54612E-06
6.37827E-06
8.22461E-06
7.88891E-06
7.21752E-06
7.21752E-06
6.54612E-06
5.87472E-06
6.54612E-06
7.04967E-06
9.90311E-06
1.19173E-05
1.1078E-05
1.09102E-05
1.15816E-05
1.24208E-05
1.35958E-05
1.37636E-05
1.35958E-05
1.4435E-05
1.34279E-05
1.19173E-05
1.05745E-05
1.05745E-05
1.04067E-05
9.56741E-06
8.56031E-06
8.39246E-06
1.25887E-05
1.52743E-05
1.54421E-05
1.66171E-05
1.76242E-05
1.8967E-05
1.96384E-05
1.86313E-05
1.86313E-05
1.94705E-05
1.96384E-05
1.94705E-05
1.81277E-05
1.59457E-05
1.42672E-05
1.17494E-05
9.06386E-06
7.88891E-06
6.88182E-06
8.56031E-06
1.02388E-05
1.19173E-05
1.32601E-05
1.05745E-05
7.72107E-06
6.88182E-06
6.88182E-06
6.88182E-06
7.21752E-06
8.22461E-06
8.22461E-06
9.90311E-06
1.02388E-05
8.56031E-06
8.22461E-06
9.56741E-06
1.02388E-05
9.90311E-06
1.05745E-05
1.37636E-05
1.59457E-05
1.59457E-05
1.39315E-05
1.25887E-05
1.19173E-05
1.19173E-05
1.14137E-05
1.12459E-05
1.17494E-05
1.1078E-05
7.88891E-06
4.86763E-06
5.20333E-06
7.55322E-06
9.06386E-06
8.72816E-06
6.88182E-06
5.53902E-06
4.53193E-06
4.02838E-06
3.86053E-06
5.20333E-06
7.88891E-06
9.73526E-06
9.56741E-06
9.56741E-06
9.23171E-06
9.90311E-06
1.05745E-05
1.05745E-05
8.56031E-06
9.23171E-06
1.30922E-05
1.32601E-05
1.25887E-05
1.15816E-05
1.0071E-05
1.05745E-05
1.35958E-05
1.52743E-05
1.46029E-05
1.29244E-05
1.12459E-05
1.02388E-05
9.56741E-06
1.0071E-05
1.19173E-05
1.32601E-05
1.15816E-05
8.89601E-06
7.88891E-06
8.89601E-06
1.12459E-05
1.25887E-05
1.32601E-05
1.39315E-05
1.39315E-05
1.24208E-05
1.39315E-05
1.52743E-05
1.52743E-05
1.39315E-05
1.24208E-05
1.02388E-05
9.23171E-06
1.29244E-05
1.561E-05
1.57778E-05
1.52743E-05
1.66171E-05
1.66171E-05
1.46029E-05
1.32601E-05
1.32601E-05
1.4435E-05
1.51064E-05
1.49386E-05
1.30922E-05
1.25887E-05
1.39315E-05
1.35958E-05
1.02388E-05
7.21752E-06
5.53902E-06
5.87472E-06
6.37827E-06
6.54612E-06
7.88891E-06
6.37827E-06
4.19623E-06
5.20333E-06
7.38537E-06
9.06386E-06
1.02388E-05
1.19173E-05
1.34279E-05
1.25887E-05
1.05745E-05
1.05745E-05
1.25887E-05
1.32601E-05
1.39315E-05
1.4435E-05
1.19173E-05
1.02388E-05
1.12459E-05
1.12459E-05
9.90311E-06
6.71397E-06
5.03548E-06
7.21752E-06
1.05745E-05
1.30922E-05
1.24208E-05
9.23171E-06
8.56031E-06
1.02388E-05
1.12459E-05
1.42672E-05
1.69528E-05
1.37636E-05
9.23171E-06
7.88891E-06
6.37827E-06
5.20333E-06
5.03548E-06
7.21752E-06
1.02388E-05
1.04067E-05
9.90311E-06
1.05745E-05
1.12459E-05
1.19173E-05
1.32601E-05
1.12459E-05
9.56741E-06
1.19173E-05
1.52743E-05
1.57778E-05
1.37636E-05
1.09102E-05
9.73526E-06
1.04067E-05
9.56741E-06
9.56741E-06
1.2253E-05
1.39315E-05
1.29244E-05
1.04067E-05
8.89601E-06
9.56741E-06
9.90311E-06
1.05745E-05
1.1078E-05
1.05745E-05
1.0071E-05
1.09102E-05
1.2253E-05
1.32601E-05
1.37636E-05
1.29244E-05
1.19173E-05
1.39315E-05
1.46029E-05
1.2253E-05
9.90311E-06
1.02388E-05
1.35958E-05
1.64492E-05
1.59457E-05
1.30922E-05
1.32601E-05
1.32601E-05
1.19173E-05
1.17494E-05
1.05745E-05
1.14137E-05
1.2253E-05
1.15816E-05
1.09102E-05
8.56031E-06
7.21752E-06
1.05745E-05
1.39315E-05
1.66171E-05
1.7792E-05
1.46029E-05
1.29244E-05
1.66171E-05
1.86313E-05
1.69528E-05
1.46029E-05
1.27565E-05
1.30922E-05
1.46029E-05
1.561E-05
1.49386E-05
1.30922E-05
1.14137E-05
1.05745E-05
1.05745E-05
9.90311E-06
9.90311E-06
1.12459E-05
1.12459E-05
8.89601E-06
6.54612E-06
3.52483E-06
3.35698E-06
6.54612E-06
1.04067E-05
1.29244E-05
1.17494E-05
9.90311E-06
8.39246E-06
6.04257E-06
4.53193E-06
5.20333E-06
3.86053E-06
3.18914E-06
5.20333E-06
8.89601E-06
1.12459E-05
1.05745E-05
7.88891E-06
8.56031E-06
1.02388E-05
1.04067E-05
1.02388E-05
1.04067E-05
1.19173E-05
1.37636E-05
1.42672E-05
1.30922E-05
1.19173E-05
1.05745E-05
1.02388E-05
1.15816E-05
1.1078E-05
9.90311E-06
9.56741E-06
1.05745E-05
1.05745E-05
9.90311E-06
1.09102E-05
1.32601E-05
1.32601E-05
1.2253E-05
9.90311E-06
8.39246E-06
8.89601E-06
1.25887E-05
1.561E-05
1.42672E-05
1.19173E-05
1.1078E-05
1.05745E-05
1.15816E-05
1.17494E-05
1.19173E-05
1.52743E-05
1.72885E-05
1.46029E-05
1.15816E-05
1.14137E-05
1.32601E-05
1.46029E-05
1.32601E-05
1.05745E-05
1.05745E-05
1.12459E-05
1.12459E-05
1.25887E-05
1.37636E-05
1.29244E-05
1.19173E-05
1.12459E-05
1.14137E-05
1.09102E-05
1.05745E-05
1.15816E-05
1.29244E-05
1.25887E-05
9.06386E-06
3.86053E-06
1.51064E-06
3.86053E-06
8.39246E-06
1.19173E-05
1.37636E-05
1.17494E-05
9.23171E-06
9.23171E-06
1.19173E-05
1.37636E-05
1.25887E-05
8.89601E-06
7.55322E-06
8.39246E-06
7.88891E-06
7.88891E-06
1.02388E-05
1.2253E-05
1.32601E-05
1.20851E-05
8.89601E-06
9.56741E-06
1.25887E-05
1.2253E-05
1.05745E-05
1.12459E-05
1.42672E-05
1.72885E-05
1.79599E-05
1.71206E-05
1.66171E-05
1.49386E-05
1.29244E-05
1.19173E-05
1.2253E-05
1.2253E-05
9.90311E-06
6.37827E-06
6.54612E-06
1.02388E-05
1.05745E-05
1.02388E-05
1.05745E-05
8.39246E-06
5.03548E-06
4.53193E-06
7.88891E-06
1.12459E-05
1.05745E-05
8.72816E-06
8.56031E-06
7.88891E-06
8.56031E-06
1.0071E-05
9.90311E-06
9.23171E-06
9.23171E-06
7.88891E-06
8.56031E-06
1.04067E-05
1.15816E-05
1.25887E-05
1.35958E-05
1.32601E-05
1.25887E-05
1.29244E-05
1.29244E-05
1.32601E-05
1.35958E-05
1.29244E-05
1.19173E-05
1.04067E-05
1.15816E-05
1.52743E-05
1.86313E-05
1.84634E-05
1.561E-05
1.30922E-05
1.24208E-05
1.32601E-05
1.57778E-05
1.69528E-05
1.57778E-05
1.35958E-05
1.32601E-05
1.29244E-05
1.05745E-05
8.39246E-06
5.20333E-06
3.86053E-06
6.54612E-06
9.23171E-06
1.02388E-05
9.06386E-06
8.22461E-06
8.22461E-06
8.39246E-06
7.21752E-06
6.04257E-06
7.55322E-06
1.02388E-05
1.05745E-05
1.32601E-05
1.561E-05
1.42672E-05
1.35958E-05
1.42672E-05
1.39315E-05
1.15816E-05
9.23171E-06
9.23171E-06
1.20851E-05
1.51064E-05
1.62814E-05
1.54421E-05
1.35958E-05
1.30922E-05
1.25887E-05
1.29244E-05
1.32601E-05
1.42672E-05
1.42672E-05
1.35958E-05
1.35958E-05
1.39315E-05
1.4435E-05
1.4435E-05
1.46029E-05
1.47707E-05
1.39315E-05
1.2253E-05
1.1078E-05
1.05745E-05
1.05745E-05
1.05745E-05
1.05745E-05
1.15816E-05
1.34279E-05
1.35958E-05
1.19173E-05
1.05745E-05
1.09102E-05
1.25887E-05
1.42672E-05
1.52743E-05
1.46029E-05
1.25887E-05
1.02388E-05
8.39246E-06
5.87472E-06
5.87472E-06
7.88891E-06
1.02388E-05
1.15816E-05
1.05745E-05
8.22461E-06
5.20333E-06
4.53193E-06
6.04257E-06
7.55322E-06
8.22461E-06
7.72107E-06
4.86763E-06
2.51774E-06
3.02129E-06
5.20333E-06
7.38537E-06
7.88891E-06
9.23171E-06
1.04067E-05
1.14137E-05
1.05745E-05
8.56031E-06
5.70687E-06
6.21042E-06
6.21042E-06
4.19623E-06
3.86053E-06
6.21042E-06
7.88891E-06
6.88182E-06
6.88182E-06
9.73526E-06
1.24208E-05
1.25887E-05
1.19173E-05
1.30922E-05
1.46029E-05
1.52743E-05
1.54421E-05
1.42672E-05
1.27565E-05
1.14137E-05
1.04067E-05
9.23171E-06
7.55322E-06
7.04967E-06
1.05745E-05
1.52743E-05
1.42672E-05
1.32601E-05
1.42672E-05
1.32601E-05
1.35958E-05
1.62814E-05
1.86313E-05
1.86313E-05
1.72885E-05
1.67849E-05
1.69528E-05
1.66171E-05
1.52743E-05
1.17494E-05
9.23171E-06
1.19173E-05
1.46029E-05
1.52743E-05
1.39315E-05
1.37636E-05
1.39315E-05
1.32601E-05
1.24208E-05
1.19173E-05
1.27565E-05
1.47707E-05
1.51064E-05
1.32601E-05
1.25887E-05
1.15816E-05
1.19173E-05
1.35958E-05
1.35958E-05
1.14137E-05
1.02388E-05
8.56031E-06
7.21752E-06
7.55322E-06
8.39246E-06
9.23171E-06
8.22461E-06
6.88182E-06
9.23171E-06
1.19173E-05
1.19173E-05
1.05745E-05
8.56031E-06
9.56741E-06
1.19173E-05
1.19173E-05
1.05745E-05
1.0071E-05
1.05745E-05
1.1078E-05
8.72816E-06
6.04257E-06
7.88891E-06
1.14137E-05
1.30922E-05
1.37636E-05
1.39315E-05
1.49386E-05
1.57778E-05
1.62814E-05
1.561E-05
1.49386E-05
1.20851E-05
1.05745E-05
1.29244E-05
1.35958E-05
1.19173E-05
1.04067E-05
1.02388E-05
1.37636E-05
1.49386E-05
1.17494E-05
9.39956E-06
9.73526E-06
1.12459E-05
1.05745E-05
6.88182E-06
5.20333E-06
6.88182E-06
1.05745E-05
1.30922E-05
1.29244E-05
1.14137E-05
1.12459E-05
1.19173E-05
1.27565E-05
1.25887E-05
1.17494E-05
1.1078E-05
1.05745E-05
1.05745E-05
1.12459E-05
1.1078E-05
1.15816E-05
9.90311E-06
6.88182E-06
5.87472E-06
6.21042E-06
7.55322E-06
9.56741E-06
1.09102E-05
1.04067E-05
9.06386E-06
8.22461E-06
1.15816E-05
1.59457E-05
1.561E-05
1.05745E-05
8.39246E-06
1.02388E-05
1.17494E-05
1.05745E-05
5.87472E-06
3.52483E-06
1.67849E-07
-1.67849E-07
3.35698E-06
6.21042E-06
7.21752E-06
7.72107E-06
8.39246E-06
9.73526E-06
1.2253E-05
1.42672E-05
1.46029E-05
1.37636E-05
1.25887E-05
1.12459E-05
1.0071E-05
1.02388E-05
1.19173E-05
1.25887E-05
1.05745E-05
9.06386E-06
9.23171E-06
1.02388E-05
1.25887E-05
1.39315E-05
1.35958E-05
1.2253E-05
1.05745E-05
9.90311E-06
1.32601E-05
1.72885E-05
1.72885E-05
1.46029E-05
1.0071E-05
9.23171E-06
1.19173E-05
1.25887E-05
9.56741E-06
7.55322E-06
7.55322E-06
7.88891E-06
8.56031E-06
8.89601E-06
1.12459E-05
1.32601E-05
1.32601E-05
1.15816E-05
1.1078E-05
1.05745E-05
1.15816E-05
1.32601E-05
1.59457E-05
1.46029E-05
1.02388E-05
8.56031E-06
1.02388E-05
1.1078E-05
1.09102E-05
9.90311E-06
7.88891E-06
8.39246E-06
1.19173E-05
1.37636E-05
1.37636E-05
1.19173E-05
1.05745E-05
1.1078E-05
1.02388E-05
8.22461E-06
8.22461E-06
1.02388E-05
1.15816E-05
1.05745E-05
9.90311E-06
9.90311E-06
1.17494E-05
1.19173E-05
1.12459E-05
1.1078E-05
1.05745E-05
9.56741E-06
1.1078E-05
1.12459E-05
9.73526E-06
9.23171E-06
7.21752E-06
6.88182E-06
9.90311E-06
1.29244E-05
1.4435E-05
1.52743E-05
1.52743E-05
1.35958E-05
1.05745E-05
8.89601E-06
9.90311E-06
1.2253E-05
1.4435E-05
1.42672E-05
1.05745E-05
8.22461E-06
7.72107E-06
7.04967E-06
8.22461E-06
1.05745E-05
1.24208E-05
1.37636E-05
1.52743E-05
1.66171E-05
1.69528E-05
1.64492E-05
1.52743E-05
1.4435E-05
1.46029E-05
1.4435E-05
1.46029E-05
1.46029E-05
1.40993E-05
1.32601E-05
1.19173E-05
1.29244E-05
1.49386E-05
1.81277E-05
1.96384E-05
1.79599E-05
1.39315E-05
1.1078E-05
1.19173E-05
1.40993E-05
1.42672E-05
1.39315E-05
1.02388E-05
6.04257E-06
4.86763E-06
4.02838E-06
3.69268E-06
4.19623E-06
2.51774E-06
6.71397E-07
1.84634E-06
5.20333E-06
7.72107E-06
7.55322E-06
5.87472E-06
7.04967E-06
9.90311E-06
9.90311E-06
8.39246E-06
6.71397E-06
6.88182E-06
8.56031E-06
8.89601E-06
7.88891E-06
8.39246E-06
1.12459E-05
1.39315E-05
1.46029E-05
1.40993E-05
1.42672E-05
1.51064E-05
1.46029E-05
1.37636E-05
1.30922E-05
1.2253E-05
1.05745E-05
1.02388E-05
1.09102E-05
1.14137E-05
1.12459E-05
1.12459E-05
1.32601E-05
1.42672E-05
1.32601E-05
1.27565E-05
1.20851E-05
1.29244E-05
1.57778E-05
1.71206E-05
1.52743E-05
1.52743E-05
1.64492E-05
1.561E-05
1.39315E-05
1.05745E-05
1.12459E-05
1.32601E-05
1.25887E-05
1.15816E-05
1.15816E-05
1.04067E-05
1.05745E-05
1.02388E-05
9.90311E-06
1.12459E-05
1.12459E-05
7.88891E-06
6.21042E-06
6.37827E-06
6.21042E-06
6.88182E-06
7.88891E-06
7.88891E-06
9.06386E-06
9.90311E-06
9.23171E-06
8.56031E-06
1.15816E-05
1.46029E-05
1.39315E-05
1.12459E-05
1.02388E-05
1.12459E-05
1.32601E-05
1.37636E-05
1.32601E-05
1.32601E-05
1.32601E-05
1.42672E-05
1.4435E-05
1.2253E-05
1.12459E-05
1.14137E-05
1.29244E-05
1.32601E-05
1.37636E-05
1.4435E-05
1.54421E-05
1.66171E-05
1.76242E-05
1.62814E-05
1.40993E-05
1.25887E-05
1.09102E-05
1.05745E-05
8.89601E-06
5.87472E-06
4.53193E-06
7.38537E-06
9.90311E-06
1.19173E-05
1.29244E-05
1.2253E-05
9.90311E-06
8.22461E-06
9.90311E-06
1.32601E-05
1.46029E-05
1.32601E-05
1.29244E-05
1.25887E-05
1.12459E-05
1.19173E-05
1.30922E-05
1.25887E-05
1.12459E-05
9.56741E-06
8.89601E-06
1.0071E-05
1.1078E-05
1.14137E-05
1.1078E-05
1.05745E-05
1.32601E-05
1.69528E-05
1.59457E-05
1.19173E-05
7.72107E-06
5.20333E-06
6.54612E-06
9.23171E-06
1.17494E-05
1.19173E-05
9.23171E-06
7.21752E-06
7.55322E-06
7.88891E-06
7.72107E-06
8.89601E-06
1.09102E-05
1.14137E-05
1.05745E-05
1.02388E-05
9.73526E-06
1.04067E-05
1.19173E-05
1.12459E-05
1.1078E-05
1.12459E-05
9.23171E-06
9.23171E-06
1.05745E-05
1.12459E-05
8.56031E-06
5.70687E-06
5.20333E-06
7.21752E-06
1.14137E-05
1.32601E-05
1.25887E-05
1.05745E-05
8.89601E-06
8.89601E-06
1.05745E-05
1.32601E-05
1.57778E-05
1.32601E-05
9.90311E-06
9.56741E-06
1.12459E-05
1.39315E-05
1.49386E-05
1.51064E-05
1.39315E-05
9.06386E-06
7.21752E-06
9.90311E-06
1.2253E-05
1.30922E-05
1.2253E-05
1.15816E-05
1.32601E-05
1.52743E-05
1.59457E-05
1.57778E-05
1.49386E-05
1.54421E-05
1.79599E-05
1.71206E-05
1.27565E-05
1.05745E-05
1.19173E-05
1.32601E-05
1.29244E-05
1.0071E-05
8.56031E-06
7.72107E-06
7.55322E-06
5.87472E-06
3.18914E-06
3.69268E-06
6.54612E-06
9.23171E-06
9.23171E-06
6.21042E-06
3.69268E-06
3.86053E-06
6.88182E-06
9.56741E-06
1.19173E-05
1.27565E-05
1.25887E-05
1.05745E-05
9.90311E-06
1.04067E-05
1.12459E-05
1.27565E-05
1.32601E-05
1.39315E-05
1.27565E-05
8.56031E-06
5.87472E-06
7.88891E-06
1.12459E-05
1.29244E-05
1.25887E-05
1.09102E-05
1.12459E-05
1.30922E-05
1.39315E-05
1.30922E-05
1.02388E-05
5.87472E-06
4.19623E-06
7.21752E-06
1.02388E-05
1.02388E-05
7.88891E-06
5.70687E-06
5.20333E-06
5.70687E-06
7.72107E-06
9.73526E-06
1.09102E-05
1.19173E-05
1.2253E-05
1.17494E-05
1.29244E-05
1.32601E-05
1.27565E-05
1.17494E-05
1.05745E-05
9.56741E-06
1.05745E-05
1.39315E-05
1.59457E-05
1.59457E-05
1.49386E-05
1.24208E-05
1.09102E-05
1.12459E-05
1.19173E-05
1.25887E-05
1.54421E-05
1.561E-05
1.40993E-05
1.15816E-05
1.04067E-05
1.2253E-05
1.40993E-05
1.4435E-05
1.27565E-05
9.56741E-06
7.88891E-06
9.56741E-06
1.30922E-05
1.52743E-05
1.34279E-05
9.90311E-06
8.56031E-06
9.23171E-06
9.06386E-06
8.56031E-06
8.56031E-06
8.22461E-06
8.72816E-06
1.02388E-05
1.24208E-05
1.35958E-05
1.19173E-05
9.90311E-06
9.56741E-06
1.15816E-05
1.39315E-05
1.42672E-05
1.29244E-05
1.09102E-05
1.05745E-05
8.22461E-06
6.54612E-06
7.88891E-06
9.56741E-06
7.88891E-06
5.87472E-06
3.86053E-06
3.86053E-06
7.04967E-06
1.04067E-05
1.04067E-05
1.05745E-05
1.05745E-05
9.73526E-06
1.05745E-05
1.32601E-05
1.561E-05
1.54421E-05
1.32601E-05
1.30922E-05
1.25887E-05
1.15816E-05
1.12459E-05
1.05745E-05
1.24208E-05
1.52743E-05
1.37636E-05
1.05745E-05
1.17494E-05
1.54421E-05
1.66171E-05
1.52743E-05
1.32601E-05
1.29244E-05
1.49386E-05
1.71206E-05
1.79599E-05
1.74563E-05
1.62814E-05
1.59457E-05
1.71206E-05
1.79599E-05
1.76242E-05
1.72885E-05
1.561E-05
1.4435E-05
1.46029E-05
1.46029E-05
1.42672E-05
1.46029E-05
1.59457E-05
1.561E-05
1.19173E-05
8.72816E-06
9.23171E-06
1.05745E-05
9.90311E-06
7.88891E-06
7.21752E-06
9.23171E-06
1.02388E-05
1.05745E-05
1.12459E-05
1.19173E-05
1.25887E-05
1.35958E-05
1.59457E-05
1.66171E-05
1.30922E-05
1.0071E-05
8.56031E-06
9.90311E-06
9.90311E-06
9.56741E-06
1.05745E-05
1.02388E-05
7.55322E-06
3.52483E-06
2.18204E-06
2.85344E-06
5.20333E-06
8.89601E-06
9.56741E-06
8.72816E-06
7.88891E-06
7.88891E-06
1.04067E-05
1.32601E-05
1.32601E-05
9.56741E-06
4.36408E-06
2.85344E-06
5.53902E-06
8.89601E-06
1.17494E-05
1.19173E-05
1.05745E-05
1.12459E-05
1.0071E-05
8.89601E-06
9.56741E-06
9.56741E-06
9.06386E-06
1.02388E-05
1.09102E-05
1.05745E-05
1.19173E-05
1.29244E-05
1.32601E-05
1.4435E-05
1.27565E-05
1.12459E-05
1.32601E-05
1.39315E-05
1.35958E-05
1.35958E-05
1.2253E-05
1.20851E-05
1.27565E-05
1.29244E-05
1.29244E-05
1.19173E-05
1.05745E-05
9.90311E-06
9.06386E-06
8.05676E-06
1.05745E-05
1.32601E-05
1.30922E-05
1.2253E-05
1.12459E-05
9.39956E-06
9.56741E-06
9.73526E-06
8.89601E-06
8.22461E-06
7.88891E-06
7.88891E-06
9.90311E-06
1.30922E-05
1.32601E-05
1.02388E-05
7.55322E-06
7.21752E-06
9.23171E-06
1.05745E-05
1.09102E-05
9.23171E-06
7.38537E-06
7.88891E-06
8.56031E-06
6.71397E-06
4.86763E-06
6.37827E-06
7.88891E-06
8.56031E-06
8.89601E-06
9.23171E-06
1.19173E-05
1.39315E-05
1.32601E-05
1.20851E-05
1.25887E-05
1.39315E-05
1.39315E-05
1.27565E-05
1.17494E-05
1.25887E-05
1.19173E-05
1.05745E-05
1.12459E-05
1.2253E-05
1.19173E-05
1.17494E-05
1.04067E-05
9.90311E-06
1.09102E-05
1.12459E-05
1.19173E-05
1.25887E-05
1.32601E-05
1.29244E-05
1.19173E-05
1.27565E-05
1.42672E-05
1.30922E-05
1.05745E-05
1.09102E-05
1.17494E-05
1.12459E-05
1.05745E-05
1.15816E-05
1.1078E-05
9.56741E-06
8.22461E-06
9.73526E-06
1.37636E-05
1.59457E-05
1.46029E-05
1.39315E-05
1.4435E-05
1.46029E-05
1.29244E-05
9.90311E-06
9.23171E-06
1.0071E-05
1.02388E-05
7.38537E-06
5.20333E-06
5.03548E-06
6.88182E-06
1.05745E-05
1.24208E-05
1.32601E-05
1.25887E-05
1.12459E-05
1.04067E-05
1.0071E-05
1.02388E-05
1.1078E-05
1.30922E-05
1.35958E-05
1.29244E-05
1.19173E-05
1.25887E-05
1.32601E-05
1.25887E-05
1.20851E-05
1.02388E-05
9.73526E-06
1.14137E-05
1.24208E-05
1.02388E-05
8.56031E-06
7.88891E-06
9.73526E-06
1.32601E-05
1.39315E-05
1.12459E-05
8.89601E-06
9.73526E-06
1.20851E-05
1.4435E-05
1.64492E-05
1.59457E-05
1.561E-05
1.40993E-05
1.37636E-05
1.40993E-05
1.46029E-05
1.32601E-05
1.12459E-05
1.05745E-05
1.17494E-05
1.04067E-05
8.56031E-06
9.73526E-06
1.19173E-05
1.27565E-05
1.17494E-05
1.02388E-05
1.04067E-05
1.30922E-05
1.46029E-05
1.29244E-05
1.05745E-05
8.89601E-06
8.56031E-06
1.05745E-05
1.32601E-05
1.46029E-05
1.37636E-05
1.19173E-05
1.19173E-05
1.32601E-05
1.32601E-05
1.30922E-05
1.32601E-05
1.34279E-05
1.39315E-05
1.32601E-05
9.23171E-06
8.72816E-06
1.04067E-05
9.90311E-06
7.04967E-06
5.20333E-06
6.54612E-06
9.06386E-06
8.56031E-06
8.89601E-06
9.90311E-06
1.0071E-05
1.04067E-05
1.25887E-05
1.35958E-05
1.35958E-05
1.30922E-05
1.27565E-05
1.46029E-05
1.72885E-05
1.82956E-05
1.69528E-05
1.37636E-05
1.05745E-05
9.56741E-06
7.55322E-06
5.03548E-06
6.04257E-06
8.89601E-06
1.05745E-05
1.05745E-05
7.88891E-06
5.70687E-06
5.20333E-06
7.04967E-06
1.04067E-05
1.17494E-05
7.88891E-06
5.70687E-06
7.88891E-06
9.56741E-06
9.90311E-06
1.05745E-05
1.05745E-05
1.19173E-05
1.39315E-05
1.35958E-05
1.35958E-05
1.42672E-05
1.46029E-05
1.46029E-05
1.47707E-05
1.42672E-05
1.32601E-05
1.30922E-05
1.35958E-05
1.32601E-05
1.09102E-05
8.89601E-06
7.55322E-06
7.88891E-06
9.39956E-06
1.0071E-05
1.02388E-05
1.15816E-05
1.40993E-05
1.32601E-05
1.12459E-05
1.12459E-05
1.05745E-05
8.89601E-06
8.56031E-06
1.05745E-05
1.12459E-05
1.09102E-05
1.05745E-05
1.1078E-05
1.04067E-05
8.89601E-06
1.05745E-05
1.32601E-05
1.29244E-05
1.02388E-05
9.06386E-06
8.22461E-06
8.22461E-06
9.90311E-06
1.0071E-05
9.23171E-06
9.23171E-06
1.05745E-05
1.25887E-05
1.32601E-05
1.25887E-05
1.15816E-05
1.1078E-05
1.12459E-05
1.27565E-05
1.25887E-05
1.05745E-05
8.89601E-06
6.54612E-06
6.54612E-06
8.22461E-06
9.90311E-06
1.05745E-05
1.05745E-05
1.02388E-05
9.23171E-06
7.88891E-06
9.90311E-06
1.49386E-05
1.72885E-05
1.76242E-05
1.66171E-05
1.46029E-05
1.19173E-05
1.1078E-05
1.05745E-05
1.17494E-05
1.1078E-05
1.05745E-05
1.05745E-05
1.05745E-05
9.39956E-06
7.55322E-06
7.88891E-06
9.06386E-06
7.88891E-06
5.70687E-06
5.87472E-06
1.02388E-05
1.20851E-05
9.56741E-06
9.56741E-06
1.12459E-05
1.05745E-05
9.56741E-06
8.89601E-06
1.02388E-05
1.1078E-05
1.04067E-05
9.56741E-06
1.17494E-05
1.54421E-05
1.59457E-05
1.29244E-05
9.23171E-06
9.56741E-06
1.19173E-05
1.42672E-05
1.39315E-05
1.32601E-05
1.25887E-05
1.25887E-05
1.32601E-05
1.30922E-05
1.25887E-05
1.25887E-05
1.25887E-05
1.27565E-05
1.19173E-05
1.12459E-05
1.15816E-05
1.24208E-05
1.2253E-05
1.19173E-05
1.32601E-05
1.32601E-05
1.19173E-05
1.0071E-05
1.1078E-05
1.35958E-05
1.30922E-05
1.29244E-05
1.29244E-05
1.25887E-05
1.15816E-05
1.05745E-05
9.73526E-06
9.56741E-06
9.90311E-06
1.0071E-05
8.56031E-06
7.88891E-06
9.56741E-06
1.20851E-05
9.90311E-06
6.54612E-06
7.21752E-06
9.56741E-06
1.12459E-05
1.12459E-05
9.90311E-06
7.88891E-06
7.55322E-06
7.21752E-06
7.55322E-06
7.88891E-06
7.38537E-06
8.39246E-06
9.56741E-06
1.05745E-05
1.19173E-05
1.19173E-05
8.22461E-06
7.55322E-06
9.23171E-06
1.04067E-05
1.25887E-05
1.51064E-05
1.46029E-05
1.32601E-05
1.2253E-05
1.29244E-05
1.46029E-05
1.57778E-05
1.42672E-05
1.19173E-05
9.90311E-06
9.73526E-06
1.25887E-05
1.35958E-05
1.19173E-05
1.15816E-05
1.05745E-05
1.02388E-05
1.2253E-05
1.32601E-05
1.14137E-05
9.56741E-06
9.56741E-06
1.15816E-05
1.19173E-05
1.05745E-05
1.19173E-05
1.39315E-05
1.40993E-05
1.32601E-05
1.24208E-05
1.02388E-05
1.02388E-05
1.09102E-05
1.29244E-05
1.32601E-05
1.19173E-05
1.20851E-05
1.29244E-05
1.32601E-05
1.46029E-05
1.37636E-05
1.14137E-05
1.05745E-05
1.12459E-05
1.17494E-05
1.09102E-05
9.39956E-06
9.56741E-06
1.12459E-05
9.23171E-06
7.04967E-06
9.90311E-06
1.37636E-05
1.32601E-05
1.05745E-05
8.56031E-06
9.56741E-06
1.12459E-05
1.20851E-05
1.2253E-05
1.12459E-05
8.22461E-06
7.21752E-06
6.88182E-06
5.53902E-06
4.69978E-06
4.69978E-06
3.86053E-06
4.69978E-06
7.04967E-06
9.06386E-06
8.89601E-06
8.22461E-06
9.23171E-06
1.05745E-05
1.15816E-05
1.05745E-05
1.05745E-05
1.09102E-05
1.04067E-05
1.05745E-05
1.05745E-05
1.02388E-05
1.12459E-05
1.30922E-05
1.32601E-05
1.19173E-05
9.23171E-06
7.88891E-06
9.06386E-06
1.0071E-05
1.0071E-05
1.05745E-05
1.04067E-05
9.90311E-06
1.12459E-05
1.32601E-05
1.51064E-05
1.52743E-05
1.29244E-05
1.15816E-05
1.12459E-05
1.15816E-05
1.19173E-05
1.32601E-05
1.49386E-05
1.59457E-05
1.51064E-05
1.27565E-05
1.14137E-05
1.2253E-05
1.37636E-05
1.46029E-05
1.27565E-05
1.04067E-05
1.04067E-05
1.12459E-05
1.15816E-05
1.02388E-05
7.72107E-06
5.87472E-06
5.87472E-06
7.72107E-06
1.05745E-05
1.39315E-05
1.25887E-05
9.06386E-06
7.55322E-06
8.39246E-06
9.90311E-06
1.02388E-05
1.05745E-05
1.24208E-05
1.35958E-05
1.32601E-05
1.39315E-05
1.49386E-05
1.52743E-05
1.51064E-05
1.42672E-05
1.40993E-05
1.46029E-05
1.35958E-05
1.30922E-05
1.17494E-05
8.56031E-06
7.88891E-06
9.06386E-06
8.89601E-06
7.21752E-06
6.88182E-06
7.38537E-06
9.23171E-06
1.17494E-05
1.02388E-05
8.56031E-06
9.06386E-06
1.12459E-05
1.32601E-05
1.39315E-05
1.32601E-05
1.37636E-05
1.49386E-05
1.66171E-05
1.82956E-05
1.74563E-05
1.561E-05
1.54421E-05
1.66171E-05
1.59457E-05
1.52743E-05
1.37636E-05
1.39315E-05
1.40993E-05
1.42672E-05
1.51064E-05
1.51064E-05
1.27565E-05
9.06386E-06
7.55322E-06
7.88891E-06
9.90311E-06
1.05745E-05
9.90311E-06
9.23171E-06
7.88891E-06
5.87472E-06
4.53193E-06
4.53193E-06
5.20333E-06
5.53902E-06
5.53902E-06
7.21752E-06
9.06386E-06
1.05745E-05
1.0071E-05
7.21752E-06
7.55322E-06
1.02388E-05
1.1078E-05
1.05745E-05
9.90311E-06
8.89601E-06
8.89601E-06
1.05745E-05
1.32601E-05
1.4435E-05
1.25887E-05
1.05745E-05
1.19173E-05
1.42672E-05
1.42672E-05
1.32601E-05
1.2253E-05
1.19173E-05
1.1078E-05
1.05745E-05
1.04067E-05
9.56741E-06
9.73526E-06
9.90311E-06
9.56741E-06
9.90311E-06
9.90311E-06
1.09102E-05
1.2253E-05
1.30922E-05
1.40993E-05
1.46029E-05
1.40993E-05
1.42672E-05
1.4435E-05
1.39315E-05
1.62814E-05
1.91348E-05
1.76242E-05
1.52743E-05
1.25887E-05
1.05745E-05
9.90311E-06
1.19173E-05
1.4435E-05
1.52743E-05
1.39315E-05
1.15816E-05
1.15816E-05
1.42672E-05
1.59457E-05
1.74563E-05
1.51064E-05
1.1078E-05
1.09102E-05
1.42672E-05
1.57778E-05
1.46029E-05
1.19173E-05
1.1078E-05
1.04067E-05
7.55322E-06
4.53193E-06
4.36408E-06
5.20333E-06
5.53902E-06
5.20333E-06
5.53902E-06
7.88891E-06
9.23171E-06
9.06386E-06
8.89601E-06
7.04967E-06
4.19623E-06
3.52483E-06
5.20333E-06
7.04967E-06
8.22461E-06
7.04967E-06
7.04967E-06
9.06386E-06
1.12459E-05
1.19173E-05
1.19173E-05
1.19173E-05
1.25887E-05
1.30922E-05
1.29244E-05
1.35958E-05
1.29244E-05
1.19173E-05
1.29244E-05
1.32601E-05
1.17494E-05
1.25887E-05
1.59457E-05
1.94705E-05
2.03098E-05
1.7792E-05
1.54421E-05
1.51064E-05
1.49386E-05
1.47707E-05
1.59457E-05
1.51064E-05
1.42672E-05
1.51064E-05
1.52743E-05
1.4435E-05
1.39315E-05
1.32601E-05
1.2253E-05
1.12459E-05
1.02388E-05
9.39956E-06
1.09102E-05
1.05745E-05
1.09102E-05
1.12459E-05
1.15816E-05
1.12459E-05
1.15816E-05
9.90311E-06
7.88891E-06
7.21752E-06
9.23171E-06
1.30922E-05
1.46029E-05
1.25887E-05
1.15816E-05
9.90311E-06
8.89601E-06
9.23171E-06
9.06386E-06
8.56031E-06
8.22461E-06
7.72107E-06
7.21752E-06
5.87472E-06
4.53193E-06
5.87472E-06
9.23171E-06
1.1078E-05
1.15816E-05
9.06386E-06
7.88891E-06
9.56741E-06
1.1078E-05
1.02388E-05
1.02388E-05
1.19173E-05
1.29244E-05
1.25887E-05
1.1078E-05
1.1078E-05
1.1078E-05
9.90311E-06
9.90311E-06
1.02388E-05
9.73526E-06
7.55322E-06
8.39246E-06
9.23171E-06
9.73526E-06
9.90311E-06
8.89601E-06
9.56741E-06
1.02388E-05
1.04067E-05
1.05745E-05
1.1078E-05
1.19173E-05
1.15816E-05
1.09102E-05
1.05745E-05
1.12459E-05
1.12459E-05
9.23171E-06
7.38537E-06
9.23171E-06
1.2253E-05
1.20851E-05
8.89601E-06
6.54612E-06
7.88891E-06
9.23171E-06
1.0071E-05
8.56031E-06
6.88182E-06
7.88891E-06
8.56031E-06
7.21752E-06
7.21752E-06
8.89601E-06
1.17494E-05
1.2253E-05
1.12459E-05
1.25887E-05
1.561E-05
1.59457E-05
1.37636E-05
1.05745E-05
9.23171E-06
9.90311E-06
1.1078E-05
1.17494E-05
1.15816E-05
1.19173E-05
1.24208E-05
1.19173E-05
1.05745E-05
9.73526E-06
9.06386E-06
1.0071E-05
9.06386E-06
8.39246E-06
9.73526E-06
1.14137E-05
1.15816E-05
1.14137E-05
1.17494E-05
1.12459E-05
8.56031E-06
6.37827E-06
6.37827E-06
6.88182E-06
7.21752E-06
7.38537E-06
8.56031E-06
1.05745E-05
1.2253E-05
1.25887E-05
1.05745E-05
9.56741E-06
7.21752E-06
4.86763E-06
6.04257E-06
6.54612E-06
5.03548E-06
3.86053E-06
4.02838E-06
7.04967E-06
9.56741E-06
1.0071E-05
1.15816E-05
1.39315E-05
1.57778E-05
1.42672E-05
1.02388E-05
8.39246E-06
1.02388E-05
1.24208E-05
1.32601E-05
1.30922E-05
1.2253E-05
1.04067E-05
1.15816E-05
1.27565E-05
1.37636E-05
1.49386E-05
1.57778E-05
1.72885E-05
1.79599E-05
1.7792E-05
1.62814E-05
1.51064E-05
1.32601E-05
1.19173E-05
1.19173E-05
1.2253E-05
1.15816E-05
9.06386E-06
7.55322E-06
8.22461E-06
1.15816E-05
1.37636E-05
1.52743E-05
1.76242E-05
1.99741E-05
1.98062E-05
1.62814E-05
1.27565E-05
1.29244E-05
1.52743E-05
1.52743E-05
1.42672E-05
1.25887E-05
1.05745E-05
1.05745E-05
1.25887E-05
1.4435E-05
1.4435E-05
1.39315E-05
1.39315E-05
1.39315E-05
1.25887E-05
1.19173E-05
1.2253E-05
1.04067E-05
8.89601E-06
8.89601E-06
9.23171E-06
8.89601E-06
9.56741E-06
1.15816E-05
1.25887E-05
1.05745E-05
9.73526E-06
1.20851E-05
1.39315E-05
1.39315E-05
1.29244E-05
1.25887E-05
1.46029E-05
1.42672E-05
1.09102E-05
8.22461E-06
8.72816E-06
8.22461E-06
7.88891E-06
8.22461E-06
8.56031E-06
9.23171E-06
9.73526E-06
8.89601E-06
9.90311E-06
8.39246E-06
6.54612E-06
7.38537E-06
1.0071E-05
1.17494E-05
1.20851E-05
1.15816E-05
1.15816E-05
1.09102E-05
1.02388E-05
1.15816E-05
1.15816E-05
9.23171E-06
9.56741E-06
1.12459E-05
1.05745E-05
1.05745E-05
1.15816E-05
1.09102E-05
1.05745E-05
1.05745E-05
1.19173E-05
1.561E-05
1.79599E-05
1.71206E-05
1.561E-05
1.47707E-05
1.39315E-05
1.39315E-05
1.42672E-05
1.49386E-05
1.4435E-05
1.19173E-05
1.05745E-05
1.15816E-05
1.32601E-05
1.32601E-05
1.04067E-05
6.54612E-06
4.19623E-06
3.69268E-06
4.53193E-06
4.86763E-06
5.70687E-06
6.21042E-06
7.38537E-06
8.56031E-06
9.23171E-06
1.09102E-05
1.32601E-05
1.4435E-05
1.4435E-05
1.24208E-05
8.89601E-06
7.04967E-06
6.54612E-06
7.21752E-06
9.23171E-06
9.39956E-06
9.90311E-06
1.1078E-05
1.32601E-05
1.66171E-05
1.52743E-05
1.1078E-05
9.56741E-06
1.04067E-05
1.1078E-05
1.02388E-05
9.23171E-06
9.56741E-06
1.15816E-05
1.25887E-05
1.12459E-05
1.02388E-05
9.23171E-06
1.02388E-05
1.17494E-05
1.05745E-05
9.23171E-06
9.23171E-06
1.15816E-05
1.49386E-05
1.57778E-05
1.40993E-05
1.2253E-05
1.05745E-05
1.1078E-05
1.29244E-05
1.42672E-05
1.35958E-05
1.15816E-05
1.12459E-05
1.42672E-05
1.69528E-05
1.49386E-05
1.19173E-05
1.30922E-05
1.37636E-05
1.35958E-05
1.42672E-05
1.46029E-05
1.59457E-05
1.59457E-05
1.24208E-05
9.23171E-06
9.23171E-06
1.09102E-05
1.05745E-05
9.56741E-06
9.06386E-06
9.90311E-06
1.05745E-05
1.15816E-05
1.24208E-05
1.29244E-05
1.14137E-05
1.09102E-05
1.37636E-05
1.47707E-05
1.2253E-05
1.17494E-05
1.25887E-05
1.32601E-05
1.14137E-05
7.88891E-06
7.88891E-06
1.05745E-05
1.32601E-05
1.29244E-05
9.90311E-06
7.88891E-06
7.72107E-06
8.22461E-06
9.06386E-06
8.22461E-06
7.55322E-06
9.06386E-06
9.90311E-06
9.39956E-06
9.23171E-06
9.06386E-06
7.38537E-06
8.22461E-06
1.17494E-05
1.34279E-05
1.40993E-05
1.49386E-05
1.49386E-05
1.42672E-05
1.39315E-05
1.25887E-05
1.29244E-05
1.29244E-05
1.29244E-05
1.25887E-05
1.05745E-05
8.89601E-06
7.88891E-06
8.22461E-06
8.56031E-06
8.39246E-06
7.88891E-06
8.22461E-06
8.89601E-06
9.23171E-06
1.1078E-05
1.2253E-05
1.19173E-05
1.25887E-05
1.15816E-05
1.12459E-05
1.12459E-05
9.23171E-06
7.88891E-06
8.22461E-06
7.21752E-06
5.20333E-06
6.54612E-06
8.39246E-06
7.38537E-06
5.20333E-06
4.19623E-06
4.69978E-06
7.04967E-06
9.06386E-06
1.04067E-05
1.17494E-05
1.0071E-05
7.88891E-06
9.23171E-06
1.1078E-05
1.12459E-05
8.72816E-06
4.53193E-06
3.86053E-06
8.39246E-06
1.37636E-05
1.49386E-05
1.51064E-05
1.66171E-05
1.67849E-05
1.49386E-05
1.2253E-05
9.90311E-06
7.88891E-06
8.39246E-06
1.05745E-05
1.09102E-05
9.90311E-06
1.02388E-05
1.19173E-05
1.32601E-05
1.4435E-05
1.39315E-05
1.32601E-05
1.32601E-05
1.25887E-05
1.19173E-05
1.05745E-05
8.22461E-06
6.54612E-06
7.55322E-06
8.56031E-06
7.88891E-06
7.04967E-06
6.88182E-06
1.05745E-05
1.1078E-05
8.22461E-06
7.21752E-06
8.89601E-06
1.05745E-05
1.02388E-05
9.23171E-06
1.05745E-05
1.37636E-05
1.37636E-05
1.12459E-05
1.0071E-05
1.05745E-05
1.39315E-05
1.66171E-05
1.72885E-05
1.57778E-05
1.27565E-05
1.1078E-05
1.19173E-05
1.42672E-05
1.59457E-05
1.69528E-05
1.59457E-05
1.32601E-05
1.24208E-05
1.1078E-05
1.12459E-05
1.42672E-05
1.64492E-05
1.59457E-05
1.52743E-05
1.29244E-05
1.12459E-05
1.39315E-05
1.40993E-05
1.14137E-05
9.39956E-06
1.02388E-05
1.12459E-05
1.27565E-05
1.32601E-05
1.46029E-05
1.561E-05
1.39315E-05
1.12459E-05
1.12459E-05
1.27565E-05
1.30922E-05
1.30922E-05
1.32601E-05
1.46029E-05
1.24208E-05
9.39956E-06
8.89601E-06
9.39956E-06
9.90311E-06
9.23171E-06
8.72816E-06
8.56031E-06
9.23171E-06
7.88891E-06
7.88891E-06
1.04067E-05
1.09102E-05
1.0071E-05
1.15816E-05
1.27565E-05
1.29244E-05
1.05745E-05
7.72107E-06
7.04967E-06
9.23171E-06
1.15816E-05
1.2253E-05
1.25887E-05
1.1078E-05
1.04067E-05
9.90311E-06
1.02388E-05
1.19173E-05
1.2253E-05
9.90311E-06
6.21042E-06
5.20333E-06
7.21752E-06
1.15816E-05
1.32601E-05
1.05745E-05
9.56741E-06
8.22461E-06
6.37827E-06
6.54612E-06
8.56031E-06
9.56741E-06
1.19173E-05
1.29244E-05
1.4435E-05
1.64492E-05
1.72885E-05
1.54421E-05
1.32601E-05
1.12459E-05
9.56741E-06
7.88891E-06
7.88891E-06
1.12459E-05
1.35958E-05
1.25887E-05
1.05745E-05
9.56741E-06
1.05745E-05
1.25887E-05
1.32601E-05
1.32601E-05
1.39315E-05
1.4435E-05
1.25887E-05
9.90311E-06
9.23171E-06
9.90311E-06
1.12459E-05
9.23171E-06
7.88891E-06
9.06386E-06
1.19173E-05
1.29244E-05
1.25887E-05
1.27565E-05
1.4435E-05
1.4435E-05
1.40993E-05
1.32601E-05
1.29244E-05
1.29244E-05
1.29244E-05
1.29244E-05
1.25887E-05
1.25887E-05
1.4435E-05
1.66171E-05
1.66171E-05
1.30922E-05
9.90311E-06
9.23171E-06
7.21752E-06
7.21752E-06
8.56031E-06
7.38537E-06
7.04967E-06
8.22461E-06
1.05745E-05
1.02388E-05
8.56031E-06
6.88182E-06
7.55322E-06
6.88182E-06
6.37827E-06
7.88891E-06
8.89601E-06
8.72816E-06
7.88891E-06
8.56031E-06
1.04067E-05
1.29244E-05
1.20851E-05
1.05745E-05
9.90311E-06
1.02388E-05
9.90311E-06
1.19173E-05
1.59457E-05
1.66171E-05
1.25887E-05
8.89601E-06
8.89601E-06
9.56741E-06
8.89601E-06
7.38537E-06
7.21752E-06
1.0071E-05
1.17494E-05
9.90311E-06
7.88891E-06
1.05745E-05
1.20851E-05
1.05745E-05
9.90311E-06
1.05745E-05
1.25887E-05
1.32601E-05
1.30922E-05
1.32601E-05
1.32601E-05
1.19173E-05
1.09102E-05
1.02388E-05
9.56741E-06
9.23171E-06
8.39246E-06
6.54612E-06
7.55322E-06
1.2253E-05
1.54421E-05
1.52743E-05
1.49386E-05
1.54421E-05
1.66171E-05
1.52743E-05
1.12459E-05
1.05745E-05
1.30922E-05
1.46029E-05
1.54421E-05
1.51064E-05
1.30922E-05
1.05745E-05
1.19173E-05
1.52743E-05
1.69528E-05
1.49386E-05
1.32601E-05
1.35958E-05
1.42672E-05
1.30922E-05
1.05745E-05
8.56031E-06
7.04967E-06
7.21752E-06
7.72107E-06
7.72107E-06
8.22461E-06
7.55322E-06
7.88891E-06
9.56741E-06
9.23171E-06
7.88891E-06
8.56031E-06
1.04067E-05
1.05745E-05
1.02388E-05
1.02388E-05
1.19173E-05
1.25887E-05
1.40993E-05
1.42672E-05
1.39315E-05
1.30922E-05
1.25887E-05
1.19173E-05
1.12459E-05
9.90311E-06
8.39246E-06
7.88891E-06
9.06386E-06
7.88891E-06
7.88891E-06
1.04067E-05
1.12459E-05
1.1078E-05
9.73526E-06
8.22461E-06
6.88182E-06
6.54612E-06
9.56741E-06
1.15816E-05
1.1078E-05
1.17494E-05
1.32601E-05
1.35958E-05
1.46029E-05
1.49386E-05
1.32601E-05
1.24208E-05
1.25887E-05
1.39315E-05
1.37636E-05
1.05745E-05
9.90311E-06
1.15816E-05
1.19173E-05
1.05745E-05
9.56741E-06
7.72107E-06
7.21752E-06
8.22461E-06
6.04257E-06
3.86053E-06
5.87472E-06
9.23171E-06
1.1078E-05
9.39956E-06
7.04967E-06
6.54612E-06
8.89601E-06
9.90311E-06
1.09102E-05
1.19173E-05
1.14137E-05
1.05745E-05
1.12459E-05
1.09102E-05
9.56741E-06
9.56741E-06
9.90311E-06
9.90311E-06
1.2253E-05
1.42672E-05
1.35958E-05
1.19173E-05
1.15816E-05
1.19173E-05
1.12459E-05
1.05745E-05
1.2253E-05
1.29244E-05
1.19173E-05
1.05745E-05
9.23171E-06
7.88891E-06
9.73526E-06
1.12459E-05
1.09102E-05
1.05745E-05
9.73526E-06
9.56741E-06
1.05745E-05
1.15816E-05
1.19173E-05
1.35958E-05
1.49386E-05
1.46029E-05
1.49386E-05
1.57778E-05
1.52743E-05
1.15816E-05
8.56031E-06
9.56741E-06
1.12459E-05
1.12459E-05
1.12459E-05
1.25887E-05
1.30922E-05
1.32601E-05
1.39315E-05
1.30922E-05
1.39315E-05
1.62814E-05
1.76242E-05
1.69528E-05
1.52743E-05
1.4435E-05
1.46029E-05
1.30922E-05
1.15816E-05
1.14137E-05
1.12459E-05
1.1078E-05
1.09102E-05
1.17494E-05
1.37636E-05
1.4435E-05
1.27565E-05
1.12459E-05
1.05745E-05
8.89601E-06
8.72816E-06
1.15816E-05
1.42672E-05
1.32601E-05
9.23171E-06
5.53902E-06
6.54612E-06
7.72107E-06
6.54612E-06
5.20333E-06
5.53902E-06
7.88891E-06
1.15816E-05
1.25887E-05
1.05745E-05
9.23171E-06
8.89601E-06
8.56031E-06
9.23171E-06
1.09102E-05
1.0071E-05
1.05745E-05
1.12459E-05
1.09102E-05
9.06386E-06
7.88891E-06
7.55322E-06
6.37827E-06
6.21042E-06
8.56031E-06
8.56031E-06
7.55322E-06
8.89601E-06
9.06386E-06
7.88891E-06
7.88891E-06
7.21752E-06
7.21752E-06
8.39246E-06
9.90311E-06
1.04067E-05
9.23171E-06
7.55322E-06
6.04257E-06
7.38537E-06
8.56031E-06
8.05676E-06
8.22461E-06
1.02388E-05
1.27565E-05
1.35958E-05
1.25887E-05
1.32601E-05
1.42672E-05
1.39315E-05
1.35958E-05
1.29244E-05
1.25887E-05
1.30922E-05
1.32601E-05
1.46029E-05
1.64492E-05
1.561E-05
1.30922E-05
1.2253E-05
1.27565E-05
1.47707E-05
1.69528E-05
1.64492E-05
1.46029E-05
1.49386E-05
1.51064E-05
1.35958E-05
1.32601E-05
1.40993E-05
1.4435E-05
1.29244E-05
9.73526E-06
7.38537E-06
7.21752E-06
7.88891E-06
8.39246E-06
9.56741E-06
1.15816E-05
1.32601E-05
1.37636E-05
1.42672E-05
1.35958E-05
1.09102E-05
9.73526E-06
1.09102E-05
1.05745E-05
1.09102E-05
1.19173E-05
1.20851E-05
1.25887E-05
1.32601E-05
1.29244E-05
1.12459E-05
1.02388E-05
9.56741E-06
1.0071E-05
1.05745E-05
8.89601E-06
7.55322E-06
8.89601E-06
1.14137E-05
1.15816E-05
9.39956E-06
9.56741E-06
1.19173E-05
1.37636E-05
1.24208E-05
1.25887E-05
1.15816E-05
9.23171E-06
1.02388E-05
1.05745E-05
9.56741E-06
8.89601E-06
8.22461E-06
9.56741E-06
1.19173E-05
1.25887E-05
1.05745E-05
9.56741E-06
9.56741E-06
1.05745E-05
8.56031E-06
5.87472E-06
6.88182E-06
8.56031E-06
9.56741E-06
8.89601E-06
8.22461E-06
7.88891E-06
8.56031E-06
9.23171E-06
8.39246E-06
8.56031E-06
9.23171E-06
9.06386E-06
1.05745E-05
1.02388E-05
8.56031E-06
6.21042E-06
3.86053E-06
5.53902E-06
9.73526E-06
1.19173E-05
1.19173E-05
1.19173E-05
1.15816E-05
1.14137E-05
1.04067E-05
9.23171E-06
9.06386E-06
9.90311E-06
1.2253E-05
1.59457E-05
1.71206E-05
1.49386E-05
1.25887E-05
1.19173E-05
1.24208E-05
1.15816E-05
1.05745E-05
1.04067E-05
9.73526E-06
1.02388E-05
1.15816E-05
1.32601E-05
1.20851E-05
9.90311E-06
1.02388E-05
1.27565E-05
1.25887E-05
1.25887E-05
1.40993E-05
1.49386E-05
1.49386E-05
1.46029E-05
1.52743E-05
1.46029E-05
1.19173E-05
9.39956E-06
8.56031E-06
9.73526E-06
1.05745E-05
1.15816E-05
1.25887E-05
1.12459E-05
9.90311E-06
1.05745E-05
1.17494E-05
1.2253E-05
1.2253E-05
1.09102E-05
9.90311E-06
1.19173E-05
1.42672E-05
1.52743E-05
1.52743E-05
1.46029E-05
1.30922E-05
1.12459E-05
9.73526E-06
9.73526E-06
1.15816E-05
1.35958E-05
1.51064E-05
1.42672E-05
1.24208E-05
1.25887E-05
1.52743E-05
1.72885E-05
1.69528E-05
1.47707E-05
1.15816E-05
1.15816E-05
1.35958E-05
1.42672E-05
1.15816E-05
8.56031E-06
7.72107E-06
6.88182E-06
6.37827E-06
7.55322E-06
7.21752E-06
6.54612E-06
7.04967E-06
8.05676E-06
7.38537E-06
5.70687E-06
7.55322E-06
1.12459E-05
1.19173E-05
1.12459E-05
8.56031E-06
8.39246E-06
1.05745E-05
1.24208E-05
1.32601E-05
1.39315E-05
1.35958E-05
1.25887E-05
1.19173E-05
1.05745E-05
8.22461E-06
5.87472E-06
4.53193E-06
6.37827E-06
1.09102E-05
1.35958E-05
1.39315E-05
1.35958E-05
1.49386E-05
1.49386E-05
1.19173E-05
8.56031E-06
8.56031E-06
9.39956E-06
1.05745E-05
1.2253E-05
1.30922E-05
1.24208E-05
1.32601E-05
1.39315E-05
1.32601E-05
1.25887E-05
1.05745E-05
7.88891E-06
7.55322E-06
8.56031E-06
1.0071E-05
1.32601E-05
1.35958E-05
1.09102E-05
9.90311E-06
1.05745E-05
1.24208E-05
1.24208E-05
1.05745E-05
9.23171E-06
8.22461E-06
9.39956E-06
1.12459E-05
1.05745E-05
9.23171E-06
8.56031E-06
8.39246E-06
9.23171E-06
1.25887E-05
1.39315E-05
1.39315E-05
1.32601E-05
1.1078E-05
1.19173E-05
1.25887E-05
1.29244E-05
1.37636E-05
1.37636E-05
1.19173E-05
1.12459E-05
1.17494E-05
1.24208E-05
1.19173E-05
1.12459E-05
8.39246E-06
7.55322E-06
9.73526E-06
1.1078E-05
1.25887E-05
1.27565E-05
1.2253E-05
1.09102E-05
9.23171E-06
9.23171E-06
1.25887E-05
1.46029E-05
1.2253E-05
1.05745E-05
1.1078E-05
1.27565E-05
1.32601E-05
1.19173E-05
1.30922E-05
1.51064E-05
1.39315E-05
1.19173E-05
1.24208E-05
1.2253E-05
1.05745E-05
1.02388E-05
9.73526E-06
9.23171E-06
7.88891E-06
5.53902E-06
5.20333E-06
6.54612E-06
9.06386E-06
1.05745E-05
8.89601E-06
7.21752E-06
7.55322E-06
8.56031E-06
9.56741E-06
1.05745E-05
1.02388E-05
8.56031E-06
9.56741E-06
1.12459E-05
1.1078E-05
1.15816E-05
1.25887E-05
1.40993E-05
1.49386E-05
1.35958E-05
9.73526E-06
1.0071E-05
1.30922E-05
1.47707E-05
1.40993E-05
1.29244E-05
1.30922E-05
1.30922E-05
1.37636E-05
1.62814E-05
1.52743E-05
1.25887E-05
1.24208E-05
1.25887E-05
1.2253E-05
1.05745E-05
9.23171E-06
1.02388E-05
1.25887E-05
1.20851E-05
1.17494E-05
1.19173E-05
1.1078E-05
9.56741E-06
9.23171E-06
8.05676E-06
8.89601E-06
9.56741E-06
8.89601E-06
9.23171E-06
9.23171E-06
7.88891E-06
8.72816E-06
9.56741E-06
9.23171E-06
1.04067E-05
1.25887E-05
1.29244E-05
1.12459E-05
9.73526E-06
9.73526E-06
1.17494E-05
1.25887E-05
1.32601E-05
1.19173E-05
7.72107E-06
5.20333E-06
5.87472E-06
5.87472E-06
5.70687E-06
5.87472E-06
8.56031E-06
1.39315E-05
1.72885E-05
1.52743E-05
1.25887E-05
1.05745E-05
1.19173E-05
1.62814E-05
1.86313E-05
1.59457E-05
1.14137E-05
8.39246E-06
8.22461E-06
1.17494E-05
1.42672E-05
1.25887E-05
8.89601E-06
7.21752E-06
7.72107E-06
7.72107E-06
7.21752E-06
9.06386E-06
1.05745E-05
1.12459E-05
1.27565E-05
1.37636E-05
1.561E-05
1.64492E-05
1.52743E-05
1.32601E-05
1.35958E-05
1.42672E-05
1.40993E-05
1.25887E-05
1.05745E-05
1.15816E-05
1.19173E-05
1.14137E-05
1.12459E-05
1.19173E-05
1.12459E-05
9.73526E-06
9.23171E-06
8.39246E-06
8.56031E-06
9.23171E-06
9.23171E-06
9.23171E-06
7.72107E-06
5.53902E-06
6.88182E-06
8.56031E-06
8.89601E-06
8.72816E-06
7.88891E-06
6.54612E-06
6.88182E-06
7.38537E-06
7.21752E-06
7.21752E-06
7.55322E-06
7.72107E-06
8.22461E-06
8.39246E-06
7.88891E-06
7.88891E-06
9.23171E-06
1.0071E-05
1.02388E-05
1.17494E-05
1.30922E-05
1.20851E-05
1.19173E-05
1.32601E-05
1.19173E-05
9.56741E-06
1.02388E-05
1.32601E-05
1.46029E-05
1.15816E-05
9.06386E-06
7.55322E-06
9.06386E-06
9.23171E-06
9.90311E-06
1.24208E-05
1.52743E-05
1.49386E-05
1.15816E-05
7.72107E-06
6.54612E-06
8.56031E-06
1.04067E-05
9.90311E-06
9.90311E-06
9.23171E-06
8.56031E-06
1.02388E-05
1.05745E-05
1.1078E-05
1.2253E-05
1.24208E-05
1.39315E-05
1.49386E-05
1.59457E-05
1.59457E-05
1.4435E-05
1.25887E-05
1.29244E-05
1.24208E-05
1.02388E-05
9.56741E-06
1.15816E-05
1.66171E-05
1.54421E-05
1.32601E-05
1.37636E-05
1.35958E-05
1.25887E-05
1.32601E-05
1.46029E-05
1.42672E-05
1.35958E-05
1.37636E-05
1.35958E-05
1.25887E-05
1.2253E-05
1.25887E-05
1.15816E-05
8.56031E-06
7.21752E-06
6.21042E-06
5.87472E-06
7.04967E-06
7.38537E-06
7.38537E-06
7.04967E-06
7.38537E-06
8.89601E-06
1.05745E-05
1.02388E-05
9.23171E-06
1.05745E-05
1.19173E-05
1.04067E-05
8.89601E-06
1.05745E-05
1.25887E-05
1.39315E-05
1.59457E-05
1.52743E-05
1.35958E-05
1.14137E-05
1.05745E-05
1.19173E-05
1.40993E-05
1.59457E-05
1.66171E-05
1.57778E-05
1.49386E-05
1.25887E-05
1.05745E-05
1.37636E-05
1.71206E-05
1.69528E-05
1.59457E-05
1.39315E-05
1.12459E-05
1.05745E-05
1.0071E-05
7.88891E-06
8.22461E-06
7.72107E-06
7.55322E-06
9.39956E-06
1.04067E-05
9.56741E-06
7.21752E-06
6.37827E-06
9.56741E-06
1.37636E-05
1.52743E-05
1.46029E-05
1.49386E-05
1.51064E-05
1.40993E-05
1.25887E-05
1.05745E-05
1.05745E-05
1.1078E-05
1.32601E-05
1.32601E-05
9.23171E-06
7.88891E-06
8.72816E-06
7.72107E-06
5.53902E-06
5.53902E-06
6.88182E-06
7.88891E-06
8.56031E-06
6.04257E-06
3.52483E-06
5.20333E-06
5.87472E-06
7.38537E-06
9.23171E-06
8.56031E-06
8.39246E-06
9.90311E-06
1.0071E-05
9.06386E-06
8.56031E-06
7.88891E-06
9.90311E-06
1.24208E-05
1.32601E-05
1.42672E-05
1.2253E-05
8.89601E-06
9.06386E-06
1.15816E-05
1.19173E-05
9.06386E-06
7.21752E-06
8.39246E-06
9.73526E-06
7.72107E-06
5.70687E-06
8.22461E-06
9.90311E-06
1.15816E-05
1.39315E-05
1.46029E-05
1.32601E-05
1.2253E-05
1.15816E-05
1.27565E-05
1.34279E-05
1.25887E-05
1.2253E-05
1.42672E-05
1.51064E-05
1.35958E-05
1.20851E-05
1.05745E-05
1.02388E-05
9.90311E-06
9.90311E-06
1.05745E-05
1.15816E-05
1.25887E-05
1.42672E-05
1.66171E-05
1.79599E-05
1.72885E-05
1.59457E-05
1.54421E-05
1.42672E-05
1.29244E-05
1.25887E-05
1.2253E-05
1.02388E-05
9.23171E-06
9.90311E-06
8.89601E-06
8.22461E-06
7.88891E-06
7.38537E-06
8.39246E-06
1.05745E-05
1.2253E-05
1.29244E-05
1.15816E-05
1.05745E-05
1.12459E-05
1.19173E-05
1.17494E-05
1.19173E-05
1.14137E-05
9.73526E-06
6.54612E-06
5.20333E-06
6.88182E-06
9.56741E-06
1.25887E-05
1.25887E-05
8.89601E-06
6.37827E-06
8.39246E-06
9.23171E-06
6.54612E-06
8.22461E-06
1.32601E-05
1.64492E-05
1.66171E-05
1.52743E-05
1.49386E-05
1.52743E-05
1.30922E-05
1.2253E-05
1.32601E-05
1.42672E-05
1.46029E-05
1.39315E-05
1.39315E-05
1.49386E-05
1.46029E-05
1.15816E-05
8.56031E-06
8.89601E-06
1.02388E-05
1.04067E-05
1.05745E-05
1.14137E-05
1.25887E-05
1.12459E-05
1.0071E-05
1.19173E-05
1.37636E-05
1.25887E-05
1.05745E-05
9.90311E-06
9.56741E-06
1.19173E-05
1.35958E-05
1.29244E-05
1.12459E-05
9.90311E-06
9.73526E-06
9.90311E-06
8.89601E-06
9.90311E-06
1.24208E-05
1.39315E-05
1.32601E-05
1.1078E-05
7.21752E-06
5.20333E-06
5.20333E-06
5.87472E-06
8.22461E-06
9.23171E-06
7.55322E-06
7.88891E-06
8.56031E-06
9.56741E-06
1.0071E-05
9.39956E-06
8.89601E-06
1.04067E-05
1.2253E-05
1.15816E-05
1.24208E-05
1.39315E-05
1.35958E-05
1.30922E-05
1.32601E-05
1.19173E-05
1.05745E-05
8.56031E-06
7.04967E-06
6.88182E-06
9.56741E-06
1.20851E-05
1.12459E-05
8.56031E-06
8.89601E-06
1.04067E-05
1.02388E-05
1.2253E-05
1.46029E-05
1.4435E-05
1.49386E-05
1.64492E-05
1.54421E-05
1.46029E-05
1.49386E-05
1.46029E-05
1.32601E-05
1.02388E-05
7.88891E-06
7.88891E-06
8.89601E-06
9.90311E-06
1.1078E-05
9.90311E-06
1.05745E-05
1.35958E-05
1.37636E-05
1.2253E-05
1.19173E-05
1.15816E-05
1.05745E-05
8.89601E-06
7.72107E-06
9.56741E-06
1.29244E-05
1.29244E-05
9.06386E-06
3.86053E-06
3.02129E-06
6.88182E-06
1.12459E-05
1.35958E-05
1.29244E-05
1.05745E-05
1.02388E-05
1.17494E-05
1.42672E-05
1.42672E-05
1.25887E-05
1.15816E-05
1.52743E-05
1.99741E-05
2.06455E-05
1.79599E-05
1.42672E-05
1.19173E-05
9.90311E-06
8.56031E-06
8.72816E-06
1.17494E-05
1.37636E-05
1.25887E-05
1.15816E-05
1.02388E-05
9.56741E-06
1.12459E-05
1.35958E-05
1.49386E-05
1.51064E-05
1.4435E-05
1.17494E-05
9.90311E-06
1.12459E-05
1.15816E-05
1.05745E-05
9.90311E-06
1.02388E-05
1.04067E-05
9.23171E-06
7.55322E-06
9.23171E-06
1.25887E-05
1.59457E-05
1.59457E-05
1.29244E-05
8.89601E-06
6.37827E-06
5.20333E-06
5.20333E-06
4.19623E-06
4.53193E-06
6.54612E-06
9.23171E-06
1.0071E-05
8.56031E-06
5.87472E-06
4.86763E-06
7.88891E-06
9.23171E-06
9.06386E-06
9.73526E-06
6.54612E-06
3.69268E-06
6.54612E-06
9.90311E-06
1.12459E-05
1.2253E-05
1.32601E-05
1.29244E-05
1.12459E-05
1.05745E-05
1.19173E-05
1.30922E-05
1.29244E-05
1.39315E-05
1.59457E-05
1.66171E-05
1.69528E-05
1.52743E-05
1.19173E-05
8.22461E-06
6.54612E-06
7.21752E-06
7.88891E-06
8.89601E-06
9.23171E-06
9.23171E-06
1.02388E-05
1.1078E-05
1.05745E-05
7.21752E-06
5.20333E-06
6.54612E-06
8.39246E-06
9.56741E-06
7.88891E-06
6.54612E-06
7.88891E-06
1.05745E-05
1.29244E-05
1.35958E-05
1.19173E-05
1.05745E-05
1.12459E-05
1.17494E-05
1.17494E-05
1.05745E-05
9.73526E-06
1.12459E-05
1.25887E-05
1.19173E-05
1.2253E-05
1.32601E-05
1.29244E-05
1.2253E-05
1.05745E-05
1.0071E-05
1.19173E-05
1.39315E-05
1.46029E-05
1.42672E-05
1.19173E-05
7.55322E-06
7.21752E-06
9.73526E-06
9.90311E-06
7.88891E-06
5.87472E-06
5.70687E-06
7.21752E-06
7.88891E-06
7.38537E-06
8.56031E-06
1.05745E-05
1.19173E-05
1.42672E-05
1.52743E-05
1.25887E-05
1.15816E-05
1.12459E-05
1.1078E-05
1.25887E-05
1.32601E-05
1.2253E-05
1.24208E-05
1.29244E-05
1.35958E-05
1.35958E-05
1.46029E-05
1.81277E-05
1.94705E-05
1.64492E-05
1.30922E-05
1.12459E-05
1.25887E-05
1.37636E-05
1.32601E-05
1.32601E-05
1.25887E-05
1.25887E-05
1.37636E-05
1.32601E-05
1.42672E-05
1.561E-05
1.4435E-05
1.17494E-05
9.39956E-06
1.04067E-05
1.12459E-05
1.12459E-05
1.1078E-05
1.25887E-05
1.29244E-05
1.05745E-05
1.05745E-05
1.2253E-05
1.24208E-05
1.02388E-05
7.88891E-06
7.21752E-06
7.21752E-06
9.23171E-06
1.04067E-05
8.89601E-06
8.22461E-06
5.70687E-06
4.36408E-06
6.54612E-06
9.23171E-06
1.04067E-05
1.04067E-05
7.88891E-06
8.89601E-06
1.15816E-05
1.0071E-05
6.54612E-06
5.20333E-06
5.20333E-06
7.04967E-06
8.22461E-06
8.22461E-06
9.06386E-06
1.02388E-05
1.15816E-05
1.25887E-05
1.2253E-05
1.37636E-05
1.59457E-05
1.66171E-05
1.76242E-05
1.71206E-05
1.49386E-05
1.32601E-05
1.46029E-05
1.46029E-05
1.42672E-05
1.39315E-05
1.40993E-05
1.42672E-05
1.42672E-05
1.4435E-05
1.39315E-05
1.39315E-05
1.35958E-05
1.32601E-05
1.1078E-05
7.88891E-06
7.21752E-06
8.56031E-06
9.39956E-06
9.56741E-06
8.72816E-06
9.23171E-06
1.12459E-05
1.15816E-05
1.1078E-05
1.2253E-05
1.19173E-05
1.02388E-05
9.23171E-06
7.88891E-06
7.21752E-06
7.21752E-06
7.55322E-06
7.88891E-06
8.56031E-06
9.56741E-06
1.05745E-05
1.20851E-05
1.2253E-05
1.19173E-05
1.12459E-05
1.05745E-05
1.19173E-05
1.2253E-05
9.90311E-06
8.39246E-06
8.39246E-06
8.72816E-06
1.05745E-05
1.19173E-05
1.29244E-05
1.24208E-05
1.15816E-05
1.05745E-05
8.56031E-06
6.88182E-06
8.22461E-06
9.23171E-06
7.38537E-06
6.88182E-06
7.88891E-06
8.56031E-06
9.23171E-06
1.2253E-05
1.2253E-05
1.0071E-05
8.89601E-06
8.56031E-06
1.02388E-05
1.39315E-05
1.69528E-05
1.59457E-05
1.14137E-05
8.39246E-06
9.90311E-06
1.15816E-05
9.90311E-06
9.90311E-06
1.12459E-05
1.17494E-05
1.25887E-05
1.2253E-05
1.12459E-05
1.05745E-05
1.1078E-05
1.25887E-05
1.39315E-05
1.27565E-05
1.02388E-05
1.02388E-05
9.39956E-06
8.56031E-06
7.88891E-06
7.72107E-06
7.88891E-06
7.55322E-06
6.88182E-06
8.22461E-06
8.22461E-06
7.88891E-06
8.72816E-06
1.0071E-05
1.15816E-05
1.17494E-05
1.0071E-05
1.04067E-05
1.30922E-05
1.35958E-05
1.17494E-05
9.23171E-06
9.56741E-06
1.32601E-05
1.64492E-05
1.59457E-05
1.62814E-05
1.64492E-05
1.35958E-05
1.25887E-05
1.35958E-05
1.69528E-05
1.76242E-05
1.561E-05
1.14137E-05
8.72816E-06
8.56031E-06
8.56031E-06
8.89601E-06
8.72816E-06
9.73526E-06
1.39315E-05
1.54421E-05
1.46029E-05
1.42672E-05
1.42672E-05
1.29244E-05
1.05745E-05
7.88891E-06
8.22461E-06
9.73526E-06
9.90311E-06
9.90311E-06
1.05745E-05
1.02388E-05
1.19173E-05
1.2253E-05
9.90311E-06
9.56741E-06
1.02388E-05
1.05745E-05
1.09102E-05
1.15816E-05
1.05745E-05
9.90311E-06
1.1078E-05
1.29244E-05
1.25887E-05
9.23171E-06
7.88891E-06
9.56741E-06
1.19173E-05
1.27565E-05
1.29244E-05
1.05745E-05
1.1078E-05
1.32601E-05
1.35958E-05
1.05745E-05
8.89601E-06
9.23171E-06
1.05745E-05
1.19173E-05
1.15816E-05
1.12459E-05
1.19173E-05
1.05745E-05
6.88182E-06
4.53193E-06
7.21752E-06
1.15816E-05
1.37636E-05
1.37636E-05
1.37636E-05
1.42672E-05
1.39315E-05
1.29244E-05
1.12459E-05
1.0071E-05
9.90311E-06
9.90311E-06
1.12459E-05
1.39315E-05
1.29244E-05
1.15816E-05
1.1078E-05
1.05745E-05
1.04067E-05
1.02388E-05
1.15816E-05
1.25887E-05
1.05745E-05
9.23171E-06
9.56741E-06
8.89601E-06
8.22461E-06
7.21752E-06
8.39246E-06
1.02388E-05
9.90311E-06
8.39246E-06
8.89601E-06
1.19173E-05
1.35958E-05
1.39315E-05
1.20851E-05
8.56031E-06
9.06386E-06
1.32601E-05
1.49386E-05
1.39315E-05
1.37636E-05
1.39315E-05
1.35958E-05
1.05745E-05
9.23171E-06
1.09102E-05
1.42672E-05
1.74563E-05
1.82956E-05
1.72885E-05
1.49386E-05
1.19173E-05
1.05745E-05
1.12459E-05
1.09102E-05
1.02388E-05
8.72816E-06
7.88891E-06
9.90311E-06
1.17494E-05
1.09102E-05
7.88891E-06
5.87472E-06
7.88891E-06
9.23171E-06
9.23171E-06
9.90311E-06
1.05745E-05
1.15816E-05
9.56741E-06
8.22461E-06
1.12459E-05
1.32601E-05
1.19173E-05
9.90311E-06
9.90311E-06
1.05745E-05
1.12459E-05
1.2253E-05
1.19173E-05
1.17494E-05
1.32601E-05
1.46029E-05
1.57778E-05
1.561E-05
1.25887E-05
9.56741E-06
7.88891E-06
8.72816E-06
1.15816E-05
1.30922E-05
1.40993E-05
1.51064E-05
1.4435E-05
1.51064E-05
1.52743E-05
1.2253E-05
9.56741E-06
8.89601E-06
1.04067E-05
1.12459E-05
1.09102E-05
1.12459E-05
1.02388E-05
7.04967E-06
5.20333E-06
5.20333E-06
6.54612E-06
9.23171E-06
1.19173E-05
1.25887E-05
1.32601E-05
1.39315E-05
1.32601E-05
1.19173E-05
1.12459E-05
1.19173E-05
1.25887E-05
1.19173E-05
1.05745E-05
9.23171E-06
8.39246E-06
7.55322E-06
7.88891E-06
8.56031E-06
1.05745E-05
1.19173E-05
9.90311E-06
8.39246E-06
9.90311E-06
1.09102E-05
1.1078E-05
1.14137E-05
1.30922E-05
1.42672E-05
1.4435E-05
1.25887E-05
1.19173E-05
1.12459E-05
9.23171E-06
7.88891E-06
8.22461E-06
1.0071E-05
1.19173E-05
1.27565E-05
1.25887E-05
1.09102E-05
7.88891E-06
4.53193E-06
5.53902E-06
7.21752E-06
6.88182E-06
7.88891E-06
8.89601E-06
1.05745E-05
1.4435E-05
1.59457E-05
1.42672E-05
1.19173E-05
1.15816E-05
1.35958E-05
1.59457E-05
1.52743E-05
1.14137E-05
9.73526E-06
9.73526E-06
1.0071E-05
1.09102E-05
1.42672E-05
1.42672E-05
1.1078E-05
7.88891E-06
6.21042E-06
6.88182E-06
7.88891E-06
9.90311E-06
1.24208E-05
1.25887E-05
9.90311E-06
6.37827E-06
4.86763E-06
5.70687E-06
8.89601E-06
1.19173E-05
1.25887E-05
1.2253E-05
1.29244E-05
1.35958E-05
1.27565E-05
1.29244E-05
1.4435E-05
1.37636E-05
1.15816E-05
1.15816E-05
1.25887E-05
1.27565E-05
1.05745E-05
9.56741E-06
8.56031E-06
6.54612E-06
6.37827E-06
7.04967E-06
7.21752E-06
8.56031E-06
9.56741E-06
9.06386E-06
9.56741E-06
9.56741E-06
9.23171E-06
1.05745E-05
1.25887E-05
1.19173E-05
9.73526E-06
7.88891E-06
7.88891E-06
1.0071E-05
1.0071E-05
7.88891E-06
8.89601E-06
1.27565E-05
1.4435E-05
1.29244E-05
1.12459E-05
1.14137E-05
1.32601E-05
1.39315E-05
1.39315E-05
1.32601E-05
1.25887E-05
1.29244E-05
1.4435E-05
1.39315E-05
1.30922E-05
1.17494E-05
9.90311E-06
7.88891E-06
7.21752E-06
7.88891E-06
9.73526E-06
1.17494E-05
1.1078E-05
1.19173E-05
1.32601E-05
1.2253E-05
1.05745E-05
9.90311E-06
1.04067E-05
1.05745E-05
8.89601E-06
7.38537E-06
9.56741E-06
1.17494E-05
9.23171E-06
9.06386E-06
1.19173E-05
1.20851E-05
9.90311E-06
6.54612E-06
5.20333E-06
7.21752E-06
8.72816E-06
8.56031E-06
7.88891E-06
7.55322E-06
7.88891E-06
8.89601E-06
1.04067E-05
1.2253E-05
1.25887E-05
1.12459E-05
1.04067E-05
1.02388E-05
1.15816E-05
1.39315E-05
1.61135E-05
1.59457E-05
1.52743E-05
1.39315E-05
1.19173E-05
1.19173E-05
1.42672E-05
1.46029E-05
1.46029E-05
1.42672E-05
1.37636E-05
1.39315E-05
1.32601E-05
1.2253E-05
1.12459E-05
8.56031E-06
7.88891E-06
9.06386E-06
1.15816E-05
1.35958E-05
1.32601E-05
1.05745E-05
1.30922E-05
1.69528E-05
1.62814E-05
1.4435E-05
1.39315E-05
1.34279E-05
1.37636E-05
1.39315E-05
1.30922E-05
1.2253E-05
1.19173E-05
1.19173E-05
1.12459E-05
1.19173E-05
1.12459E-05
9.23171E-06
8.56031E-06
1.05745E-05
1.32601E-05
1.15816E-05
9.56741E-06
1.0071E-05
1.02388E-05
1.05745E-05
1.12459E-05
9.56741E-06
9.06386E-06
1.1078E-05
1.37636E-05
1.46029E-05
1.69528E-05
1.87991E-05
1.86313E-05
1.49386E-05
1.2253E-05
1.2253E-05
1.17494E-05
1.14137E-05
1.09102E-05
9.06386E-06
6.54612E-06
6.54612E-06
6.88182E-06
7.21752E-06
7.21752E-06
8.56031E-06
9.90311E-06
1.09102E-05
1.05745E-05
9.23171E-06
7.55322E-06
5.20333E-06
4.53193E-06
6.54612E-06
9.90311E-06
1.12459E-05
9.90311E-06
9.06386E-06
8.56031E-06
7.21752E-06
6.21042E-06
9.06386E-06
1.32601E-05
1.24208E-05
9.23171E-06
8.89601E-06
9.23171E-06
8.89601E-06
7.88891E-06
8.89601E-06
1.20851E-05
1.29244E-05
1.25887E-05
1.29244E-05
1.35958E-05
1.35958E-05
1.19173E-05
1.12459E-05
1.30922E-05
1.71206E-05
1.93027E-05
1.7792E-05
1.62814E-05
1.42672E-05
1.29244E-05
1.35958E-05
1.39315E-05
1.37636E-05
1.32601E-05
1.05745E-05
9.06386E-06
7.55322E-06
7.55322E-06
1.0071E-05
1.19173E-05
1.25887E-05
1.32601E-05
1.29244E-05
1.2253E-05
1.37636E-05
1.561E-05
1.52743E-05
1.32601E-05
1.04067E-05
8.89601E-06
1.04067E-05
1.19173E-05
1.04067E-05
9.23171E-06
8.89601E-06
8.89601E-06
8.56031E-06
7.21752E-06
7.88891E-06
9.56741E-06
9.56741E-06
1.02388E-05
1.05745E-05
1.0071E-05
1.02388E-05
9.90311E-06
8.56031E-06
7.88891E-06
8.72816E-06
1.05745E-05
1.32601E-05
1.46029E-05
1.32601E-05
1.17494E-05
8.56031E-06
8.22461E-06
1.05745E-05
1.25887E-05
1.17494E-05
1.0071E-05
9.56741E-06
1.09102E-05
1.05745E-05
9.23171E-06
8.89601E-06
8.89601E-06
8.39246E-06
9.56741E-06
9.06386E-06
6.88182E-06
8.22461E-06
8.56031E-06
6.54612E-06
3.35698E-06
1.51064E-06
3.52483E-06
6.37827E-06
7.38537E-06
6.88182E-06
5.87472E-06
4.36408E-06
4.36408E-06
6.88182E-06
9.56741E-06
1.05745E-05
1.05745E-05
1.04067E-05
1.25887E-05
1.2253E-05
1.02388E-05
1.05745E-05
1.32601E-05
1.59457E-05
1.59457E-05
1.40993E-05
1.2253E-05
1.24208E-05
1.51064E-05
1.59457E-05
1.49386E-05
1.39315E-05
1.40993E-05
1.49386E-05
1.59457E-05
1.66171E-05
1.62814E-05
1.40993E-05
1.30922E-05
1.46029E-05
1.59457E-05
1.51064E-05
1.42672E-05
1.32601E-05
1.32601E-05
1.27565E-05
1.32601E-05
1.54421E-05
1.59457E-05
1.57778E-05
1.39315E-05
1.14137E-05
1.04067E-05
1.2253E-05
1.49386E-05
1.57778E-05
1.32601E-05
1.05745E-05
1.0071E-05
1.05745E-05
1.15816E-05
1.19173E-05
1.15816E-05
9.90311E-06
9.56741E-06
1.15816E-05
1.35958E-05
1.46029E-05
1.52743E-05
1.29244E-05
9.23171E-06
7.88891E-06
8.22461E-06
1.05745E-05
1.37636E-05
1.52743E-05
1.4435E-05
1.32601E-05
1.19173E-05
1.15816E-05
1.05745E-05
8.39246E-06
7.38537E-06
8.89601E-06
1.12459E-05
1.25887E-05
1.25887E-05
1.32601E-05
1.37636E-05
1.2253E-05
1.09102E-05
1.32601E-05
1.52743E-05
1.46029E-05
1.32601E-05
1.19173E-05
1.05745E-05
8.72816E-06
8.56031E-06
1.05745E-05
1.29244E-05
1.30922E-05
1.32601E-05
1.32601E-05
1.24208E-05
1.15816E-05
1.1078E-05
9.56741E-06
8.56031E-06
7.21752E-06
7.21752E-06
9.90311E-06
1.32601E-05
1.4435E-05
1.34279E-05
1.2253E-05
1.29244E-05
1.35958E-05
1.25887E-05
1.25887E-05
1.19173E-05
1.0071E-05
9.23171E-06
8.72816E-06
6.54612E-06
5.20333E-06
5.70687E-06
5.87472E-06
4.86763E-06
3.52483E-06
4.86763E-06
7.55322E-06
7.88891E-06
7.21752E-06
6.21042E-06
6.04257E-06
6.21042E-06
7.88891E-06
1.04067E-05
1.15816E-05
1.12459E-05
1.0071E-05
1.05745E-05
1.30922E-05
1.35958E-05
1.30922E-05
1.19173E-05
1.02388E-05
1.05745E-05
1.0071E-05
6.54612E-06
6.54612E-06
9.90311E-06
1.15816E-05
1.39315E-05
1.49386E-05
1.29244E-05
1.2253E-05
1.37636E-05
1.51064E-05
1.42672E-05
1.17494E-05
1.04067E-05
1.04067E-05
1.19173E-05
1.29244E-05
1.29244E-05
9.90311E-06
9.23171E-06
1.25887E-05
1.49386E-05
1.4435E-05
1.25887E-05
1.19173E-05
1.25887E-05
1.2253E-05
1.05745E-05
1.05745E-05
1.27565E-05
1.49386E-05
1.25887E-05
7.88891E-06
5.53902E-06
6.54612E-06
7.88891E-06
8.56031E-06
9.23171E-06
9.73526E-06
9.56741E-06
1.0071E-05
1.19173E-05
1.2253E-05
1.02388E-05
6.37827E-06
4.86763E-06
6.88182E-06
7.55322E-06
6.37827E-06
7.21752E-06
9.73526E-06
1.2253E-05
1.19173E-05
1.02388E-05
1.17494E-05
1.30922E-05
1.19173E-05
9.90311E-06
8.22461E-06
9.06386E-06
1.15816E-05
1.32601E-05
1.25887E-05
1.17494E-05
1.19173E-05
1.19173E-05
1.29244E-05
1.29244E-05
1.15816E-05
1.04067E-05
7.72107E-06
8.89601E-06
1.2253E-05
1.49386E-05
1.64492E-05
1.64492E-05
1.64492E-05
1.67849E-05
1.59457E-05
1.35958E-05
1.30922E-05
1.46029E-05
1.52743E-05
1.30922E-05
1.12459E-05
1.12459E-05
1.46029E-05
1.66171E-05
1.52743E-05
1.30922E-05
9.39956E-06
8.22461E-06
9.23171E-06
1.04067E-05
9.90311E-06
9.23171E-06
9.90311E-06
1.05745E-05
1.17494E-05
1.15816E-05
1.0071E-05
7.38537E-06
6.54612E-06
7.72107E-06
7.38537E-06
5.87472E-06
5.20333E-06
6.21042E-06
9.06386E-06
1.09102E-05
1.1078E-05
9.90311E-06
9.90311E-06
1.19173E-05
1.42672E-05
1.32601E-05
9.23171E-06
7.38537E-06
8.22461E-06
9.06386E-06
1.02388E-05
1.19173E-05
1.17494E-05
1.15816E-05
1.15816E-05
1.04067E-05
1.02388E-05
1.09102E-05
1.1078E-05
1.24208E-05
1.32601E-05
1.42672E-05
1.4435E-05
1.30922E-05
1.05745E-05
9.90311E-06
8.56031E-06
7.88891E-06
7.88891E-06
7.21752E-06
7.88891E-06
9.23171E-06
1.04067E-05
1.05745E-05
9.90311E-06
1.12459E-05
1.32601E-05
1.46029E-05
1.25887E-05
9.39956E-06
1.04067E-05
1.32601E-05
1.49386E-05
1.59457E-05
1.54421E-05
1.42672E-05
1.25887E-05
1.05745E-05
1.09102E-05
1.4435E-05
1.76242E-05
1.72885E-05
1.2253E-05
8.89601E-06
9.23171E-06
1.05745E-05
1.19173E-05
1.32601E-05
1.30922E-05
1.05745E-05
9.23171E-06
1.15816E-05
1.24208E-05
1.02388E-05
6.54612E-06
6.21042E-06
6.88182E-06
7.88891E-06
9.56741E-06
1.04067E-05
9.23171E-06
8.56031E-06
8.72816E-06
6.88182E-06
6.37827E-06
7.21752E-06
7.72107E-06
6.54612E-06
5.20333E-06
7.04967E-06
9.56741E-06
1.15816E-05
1.05745E-05
1.02388E-05
1.05745E-05
1.32601E-05
1.52743E-05
1.52743E-05
1.32601E-05
1.20851E-05
1.15816E-05
9.23171E-06
9.23171E-06
1.17494E-05
1.42672E-05
1.46029E-05
1.32601E-05
1.46029E-05
1.52743E-05
1.46029E-05
1.39315E-05
1.30922E-05
1.25887E-05
1.19173E-05
1.12459E-05
1.05745E-05
1.05745E-05
1.0071E-05
8.89601E-06
9.23171E-06
9.39956E-06
1.05745E-05
1.25887E-05
1.40993E-05
1.52743E-05
1.67849E-05
1.54421E-05
1.25887E-05
1.05745E-05
1.14137E-05
1.35958E-05
1.46029E-05
1.25887E-05
1.0071E-05
7.88891E-06
8.22461E-06
9.23171E-06
9.90311E-06
9.39956E-06
9.90311E-06
9.73526E-06
6.21042E-06
4.53193E-06
6.04257E-06
6.54612E-06
7.38537E-06
7.88891E-06
8.22461E-06
8.56031E-06
8.72816E-06
7.55322E-06
6.54612E-06
6.54612E-06
8.56031E-06
9.56741E-06
1.05745E-05
1.12459E-05
9.56741E-06
7.88891E-06
7.55322E-06
6.21042E-06
4.86763E-06
6.21042E-06
8.22461E-06
8.56031E-06
8.89601E-06
9.73526E-06
9.90311E-06
1.09102E-05
1.05745E-05
9.90311E-06
9.90311E-06
8.89601E-06
8.56031E-06
9.56741E-06
9.90311E-06
9.23171E-06
1.02388E-05
1.09102E-05
1.19173E-05
1.54421E-05
1.69528E-05
1.62814E-05
1.39315E-05
1.12459E-05
1.1078E-05
1.19173E-05
1.12459E-05
1.25887E-05
1.39315E-05
1.25887E-05
1.25887E-05
1.4435E-05
1.52743E-05
1.59457E-05
1.59457E-05
1.561E-05
1.49386E-05
1.46029E-05
1.42672E-05
1.51064E-05
1.42672E-05
1.19173E-05
1.05745E-05
8.56031E-06
7.55322E-06
1.09102E-05
1.52743E-05
1.54421E-05
1.46029E-05
1.29244E-05
1.25887E-05
1.12459E-05
1.0071E-05
1.2253E-05
1.49386E-05
1.59457E-05
1.46029E-05
1.20851E-05
1.17494E-05
1.30922E-05
1.32601E-05
1.32601E-05
1.561E-05
1.86313E-05
1.8967E-05
1.59457E-05
1.32601E-05
1.2253E-05
1.2253E-05
1.24208E-05
1.39315E-05
1.57778E-05
1.4435E-05
1.1078E-05
8.56031E-06
7.88891E-06
8.56031E-06
8.56031E-06
6.54612E-06
7.88891E-06
1.15816E-05
1.25887E-05
1.24208E-05
1.09102E-05
9.56741E-06
1.02388E-05
1.05745E-05
1.0071E-05
9.56741E-06
7.21752E-06
6.71397E-06
1.05745E-05
1.35958E-05
1.25887E-05
9.23171E-06
7.21752E-06
7.88891E-06
9.90311E-06
1.19173E-05
1.2253E-05
1.14137E-05
1.05745E-05
9.56741E-06
6.88182E-06
3.52483E-06
3.86053E-06
7.72107E-06
1.02388E-05
9.90311E-06
7.21752E-06
6.71397E-06
9.56741E-06
1.19173E-05
1.25887E-05
1.14137E-05
8.56031E-06
8.89601E-06
1.17494E-05
1.25887E-05
1.25887E-05
1.17494E-05
8.89601E-06
9.23171E-06
1.0071E-05
1.17494E-05
1.30922E-05
1.27565E-05
1.17494E-05
1.2253E-05
1.2253E-05
1.25887E-05
1.39315E-05
1.561E-05
1.49386E-05
1.32601E-05
1.14137E-05
1.04067E-05
1.2253E-05
1.37636E-05
1.1078E-05
9.06386E-06
9.06386E-06
9.06386E-06
9.56741E-06
1.12459E-05
1.24208E-05
1.09102E-05
6.88182E-06
5.53902E-06
7.55322E-06
9.06386E-06
9.56741E-06
1.19173E-05
1.59457E-05
1.72885E-05
1.17494E-05
7.04967E-06
8.89601E-06
1.15816E-05
1.25887E-05
1.27565E-05
1.20851E-05
1.0071E-05
1.02388E-05
1.1078E-05
1.05745E-05
9.90311E-06
9.23171E-06
8.89601E-06
7.04967E-06
6.21042E-06
7.72107E-06
9.90311E-06
9.23171E-06
7.88891E-06
8.05676E-06
9.90311E-06
1.32601E-05
1.59457E-05
1.51064E-05
1.32601E-05
1.02388E-05
1.02388E-05
1.32601E-05
1.42672E-05
1.39315E-05
1.29244E-05
1.09102E-05
1.05745E-05
1.32601E-05
1.62814E-05
1.52743E-05
1.24208E-05
1.02388E-05
1.02388E-05
1.2253E-05
1.17494E-05
8.89601E-06
8.89601E-06
1.04067E-05
1.24208E-05
1.49386E-05
1.67849E-05
1.57778E-05
1.4435E-05
1.40993E-05
1.32601E-05
1.05745E-05
9.90311E-06
1.25887E-05
1.4435E-05
1.46029E-05
1.30922E-05
1.05745E-05
9.90311E-06
1.19173E-05
1.32601E-05
1.32601E-05
1.49386E-05
1.49386E-05
1.17494E-05
8.72816E-06
9.06386E-06
1.05745E-05
1.04067E-05
7.38537E-06
6.21042E-06
8.56031E-06
1.05745E-05
1.1078E-05
1.05745E-05
1.02388E-05
1.19173E-05
1.24208E-05
1.14137E-05
1.30922E-05
1.4435E-05
1.32601E-05
1.05745E-05
7.88891E-06
7.21752E-06
7.88891E-06
7.88891E-06
7.55322E-06
7.55322E-06
6.54612E-06
7.21752E-06
1.04067E-05
1.12459E-05
9.06386E-06
6.54612E-06
6.04257E-06
7.88891E-06
1.02388E-05
9.90311E-06
8.56031E-06
6.71397E-06
3.86053E-06
3.35698E-06
5.20333E-06
6.88182E-06
9.23171E-06
9.56741E-06
9.39956E-06
9.23171E-06
8.56031E-06
8.89601E-06
1.09102E-05
1.20851E-05
1.12459E-05
8.89601E-06
5.53902E-06
5.87472E-06
1.02388E-05
1.29244E-05
1.52743E-05
1.64492E-05
1.32601E-05
1.19173E-05
1.40993E-05
1.57778E-05
1.46029E-05
1.32601E-05
1.34279E-05
1.42672E-05
1.32601E-05
1.2253E-05
1.05745E-05
1.2253E-05
1.4435E-05
1.46029E-05
1.29244E-05
1.25887E-05
1.2253E-05
1.19173E-05
1.19173E-05
1.12459E-05
1.15816E-05
1.2253E-05
1.25887E-05
1.29244E-05
1.29244E-05
1.2253E-05
1.25887E-05
1.46029E-05
1.59457E-05
1.46029E-05
1.2253E-05
1.05745E-05
1.05745E-05
1.05745E-05
9.73526E-06
9.39956E-06
1.05745E-05
1.15816E-05
1.24208E-05
1.32601E-05
1.29244E-05
1.42672E-05
1.52743E-05
1.42672E-05
1.46029E-05
1.66171E-05
1.54421E-05
1.27565E-05
1.32601E-05
1.49386E-05
1.4435E-05
9.90311E-06
5.87472E-06
6.54612E-06
9.23171E-06
1.05745E-05
1.09102E-05
1.12459E-05
1.17494E-05
1.19173E-05
1.20851E-05
1.02388E-05
9.23171E-06
8.72816E-06
1.0071E-05
1.1078E-05
8.22461E-06
6.54612E-06
9.23171E-06
1.1078E-05
1.05745E-05
8.89601E-06
5.70687E-06
6.04257E-06
8.89601E-06
1.02388E-05
9.23171E-06
8.72816E-06
8.22461E-06
7.55322E-06
7.88891E-06
8.89601E-06
9.06386E-06
9.90311E-06
8.89601E-06
8.89601E-06
9.23171E-06
8.89601E-06
7.88891E-06
9.39956E-06
1.25887E-05
1.29244E-05
1.1078E-05
9.90311E-06
1.12459E-05
1.29244E-05
1.32601E-05
1.12459E-05
7.55322E-06
4.86763E-06
5.87472E-06
7.21752E-06
6.04257E-06
5.20333E-06
5.03548E-06
7.55322E-06
1.0071E-05
1.17494E-05
1.25887E-05
1.42672E-05
1.39315E-05
1.14137E-05
1.14137E-05
1.30922E-05
1.30922E-05
1.14137E-05
1.02388E-05
1.05745E-05
1.09102E-05
1.12459E-05
1.2253E-05
1.35958E-05
1.29244E-05
1.12459E-05
9.73526E-06
1.15816E-05
1.49386E-05
1.47707E-05
1.29244E-05
1.32601E-05
1.4435E-05
1.59457E-05
1.72885E-05
1.62814E-05
1.561E-05
1.62814E-05
1.59457E-05
1.59457E-05
1.64492E-05
1.46029E-05
1.29244E-05
1.19173E-05
1.17494E-05
1.15816E-05
9.56741E-06
6.88182E-06
7.88891E-06
1.05745E-05
1.19173E-05
1.12459E-05
7.55322E-06
5.20333E-06
5.87472E-06
7.04967E-06
7.55322E-06
7.21752E-06
5.20333E-06
5.53902E-06
7.21752E-06
9.56741E-06
9.56741E-06
8.56031E-06
7.21752E-06
8.56031E-06
9.90311E-06
1.12459E-05
1.19173E-05
1.15816E-05
1.14137E-05
1.19173E-05
1.12459E-05
1.0071E-05
1.05745E-05
1.25887E-05
1.49386E-05
1.52743E-05
1.39315E-05
1.32601E-05
1.30922E-05
1.35958E-05
1.52743E-05
1.64492E-05
1.46029E-05
1.19173E-05
1.19173E-05
1.29244E-05
1.19173E-05
1.12459E-05
1.09102E-05
1.05745E-05
9.90311E-06
9.06386E-06
1.02388E-05
1.2253E-05
1.25887E-05
1.12459E-05
1.04067E-05
1.09102E-05
1.32601E-05
1.49386E-05
1.46029E-05
1.32601E-05
1.15816E-05
1.19173E-05
1.24208E-05
1.05745E-05
9.23171E-06
9.23171E-06
7.21752E-06
6.37827E-06
7.55322E-06
7.88891E-06
7.88891E-06
8.56031E-06
8.89601E-06
9.06386E-06
1.04067E-05
1.17494E-05
1.39315E-05
1.52743E-05
1.52743E-05
1.35958E-05
1.19173E-05
1.05745E-05
1.05745E-05
1.19173E-05
1.24208E-05
1.2253E-05
1.02388E-05
9.39956E-06
1.12459E-05
1.37636E-05
1.40993E-05
1.37636E-05
1.2253E-05
1.2253E-05
1.19173E-05
9.90311E-06
8.22461E-06
8.89601E-06
1.04067E-05
1.32601E-05
1.47707E-05
1.35958E-05
1.29244E-05
1.29244E-05
1.15816E-05
1.04067E-05
9.73526E-06
9.06386E-06
1.05745E-05
1.15816E-05
1.05745E-05
8.56031E-06
5.70687E-06
5.87472E-06
9.56741E-06
1.24208E-05
1.19173E-05
1.05745E-05
9.73526E-06
1.02388E-05
1.1078E-05
1.12459E-05
1.29244E-05
1.561E-05
1.54421E-05
1.25887E-05
8.56031E-06
6.88182E-06
7.88891E-06
8.56031E-06
9.23171E-06
1.0071E-05
8.39246E-06
7.04967E-06
8.56031E-06
1.02388E-05
1.05745E-05
1.12459E-05
1.05745E-05
9.23171E-06
1.05745E-05
1.2253E-05
1.17494E-05
9.73526E-06
7.55322E-06
9.56741E-06
1.39315E-05
1.59457E-05
1.59457E-05
1.67849E-05
1.72885E-05
1.59457E-05
1.57778E-05
1.57778E-05
1.54421E-05
1.51064E-05
1.46029E-05
1.25887E-05
1.0071E-05
9.23171E-06
8.39246E-06
7.88891E-06
8.56031E-06
9.90311E-06
9.73526E-06
8.72816E-06
8.89601E-06
1.02388E-05
1.09102E-05
1.12459E-05
1.12459E-05
1.2253E-05
1.30922E-05
1.35958E-05
1.30922E-05
1.02388E-05
7.88891E-06
7.21752E-06
7.21752E-06
7.88891E-06
9.56741E-06
9.23171E-06
7.21752E-06
4.36408E-06
1.84634E-06
4.86763E-06
7.21752E-06
7.04967E-06
9.56741E-06
1.17494E-05
8.22461E-06
5.20333E-06
7.55322E-06
9.90311E-06
8.89601E-06
7.88891E-06
9.23171E-06
1.19173E-05
1.39315E-05
1.32601E-05
1.25887E-05
1.32601E-05
1.32601E-05
1.2253E-05
1.02388E-05
9.56741E-06
1.12459E-05
1.14137E-05
8.72816E-06
6.71397E-06
5.87472E-06
6.54612E-06
8.56031E-06
1.04067E-05
1.2253E-05
1.32601E-05
1.27565E-05
1.25887E-05
1.29244E-05
1.27565E-05
1.29244E-05
1.29244E-05
1.17494E-05
1.17494E-05
1.32601E-05
1.39315E-05
1.46029E-05
1.67849E-05
1.72885E-05
1.7792E-05
1.76242E-05
1.59457E-05
1.47707E-05
1.46029E-05
1.46029E-05
1.35958E-05
1.27565E-05
1.25887E-05
1.30922E-05
1.54421E-05
1.67849E-05
1.47707E-05
1.02388E-05
9.56741E-06
1.19173E-05
1.24208E-05
1.09102E-05
9.23171E-06
7.88891E-06
7.21752E-06
8.89601E-06
1.05745E-05
1.02388E-05
8.72816E-06
7.88891E-06
8.56031E-06
8.56031E-06
6.54612E-06
5.03548E-06
5.87472E-06
7.55322E-06
8.39246E-06
7.88891E-06
6.37827E-06
7.88891E-06
1.04067E-05
1.12459E-05
1.05745E-05
9.90311E-06
8.56031E-06
1.0071E-05
1.17494E-05
1.19173E-05
1.12459E-05
8.56031E-06
8.22461E-06
9.56741E-06
1.12459E-05
9.56741E-06
7.88891E-06
9.56741E-06
1.12459E-05
1.04067E-05
8.56031E-06
9.90311E-06
1.27565E-05
1.32601E-05
1.35958E-05
1.35958E-05
1.42672E-05
1.561E-05
1.4435E-05
1.19173E-05
9.90311E-06
9.06386E-06
8.89601E-06
7.88891E-06
7.21752E-06
7.55322E-06
7.04967E-06
6.37827E-06
7.88891E-06
1.02388E-05
1.17494E-05
1.2253E-05
1.30922E-05
1.25887E-05
1.25887E-05
1.14137E-05
9.23171E-06
9.56741E-06
1.05745E-05
1.02388E-05
1.09102E-05
1.12459E-05
9.23171E-06
7.88891E-06
8.39246E-06
1.0071E-05
1.32601E-05
1.49386E-05
1.32601E-05
1.05745E-05
8.89601E-06
1.05745E-05
1.19173E-05
1.39315E-05
1.59457E-05
1.62814E-05
1.59457E-05
1.59457E-05
1.57778E-05
1.52743E-05
1.47707E-05
1.32601E-05
1.09102E-05
1.12459E-05
1.39315E-05
1.49386E-05
1.35958E-05
1.12459E-05
1.24208E-05
1.42672E-05
1.54421E-05
1.42672E-05
1.2253E-05
1.04067E-05
1.05745E-05
1.2253E-05
1.12459E-05
1.02388E-05
1.25887E-05
1.27565E-05
1.05745E-05
1.09102E-05
1.35958E-05
1.561E-05
1.57778E-05
1.42672E-05
1.35958E-05
1.1078E-05
1.02388E-05
1.05745E-05
9.56741E-06
6.37827E-06
5.87472E-06
8.22461E-06
1.04067E-05
1.19173E-05
1.15816E-05
1.2253E-05
1.30922E-05
1.15816E-05
8.89601E-06
7.55322E-06
7.21752E-06
7.88891E-06
9.23171E-06
9.73526E-06
9.23171E-06
9.73526E-06
9.23171E-06
8.39246E-06
9.56741E-06
9.56741E-06
8.56031E-06
8.72816E-06
9.90311E-06
9.90311E-06
9.56741E-06
1.27565E-05
1.62814E-05
1.59457E-05
1.39315E-05
1.40993E-05
1.49386E-05
1.52743E-05
1.49386E-05
1.37636E-05
1.37636E-05
1.39315E-05
1.27565E-05
1.19173E-05
1.19173E-05
1.02388E-05
9.06386E-06
1.02388E-05
1.19173E-05
1.2253E-05
1.02388E-05
8.56031E-06
8.22461E-06
8.39246E-06
7.88891E-06
7.55322E-06
7.21752E-06
7.38537E-06
7.88891E-06
6.71397E-06
5.53902E-06
9.90311E-06
1.52743E-05
1.59457E-05
1.29244E-05
1.09102E-05
1.05745E-05
1.02388E-05
1.0071E-05
1.05745E-05
1.05745E-05
1.04067E-05
1.14137E-05
1.29244E-05
1.35958E-05
1.29244E-05
1.19173E-05
1.05745E-05
9.90311E-06
8.56031E-06
9.56741E-06
1.25887E-05
1.35958E-05
1.46029E-05
1.59457E-05
1.46029E-05
1.1078E-05
9.56741E-06
9.56741E-06
9.39956E-06
1.02388E-05
1.09102E-05
1.15816E-05
1.17494E-05
1.02388E-05
8.56031E-06
8.22461E-06
7.72107E-06
8.22461E-06
8.22461E-06
9.39956E-06
1.0071E-05
1.15816E-05
1.29244E-05
1.32601E-05
1.32601E-05
1.24208E-05
1.32601E-05
1.46029E-05
1.561E-05
1.46029E-05
1.2253E-05
9.56741E-06
9.90311E-06
1.2253E-05
1.42672E-05
1.39315E-05
1.02388E-05
8.72816E-06
1.17494E-05
1.27565E-05
1.19173E-05
1.2253E-05
1.12459E-05
1.19173E-05
1.32601E-05
1.35958E-05
1.32601E-05
1.32601E-05
1.37636E-05
1.32601E-05
1.12459E-05
9.90311E-06
1.05745E-05
1.05745E-05
8.56031E-06
6.88182E-06
4.19623E-06
3.02129E-06
4.36408E-06
5.20333E-06
7.88891E-06
1.05745E-05
9.56741E-06
7.88891E-06
9.23171E-06
8.56031E-06
7.38537E-06
6.54612E-06
6.37827E-06
8.22461E-06
1.15816E-05
1.25887E-05
1.15816E-05
1.04067E-05
9.90311E-06
8.39246E-06
5.20333E-06
4.53193E-06
9.06386E-06
1.39315E-05
1.39315E-05
1.2253E-05
1.12459E-05
1.15816E-05
1.42672E-05
1.51064E-05
1.39315E-05
1.12459E-05
9.73526E-06
1.04067E-05
1.2253E-05
1.25887E-05
1.20851E-05
1.1078E-05
1.05745E-05
1.09102E-05
1.04067E-05
1.05745E-05
1.2253E-05
1.35958E-05
1.35958E-05
1.17494E-05
1.15816E-05
1.2253E-05
1.19173E-05
1.25887E-05
1.24208E-05
1.05745E-05
7.88891E-06
6.37827E-06
7.88891E-06
9.90311E-06
1.04067E-05
1.02388E-05
9.23171E-06
8.89601E-06
1.05745E-05
1.2253E-05
1.19173E-05
1.1078E-05
9.56741E-06
1.02388E-05
1.25887E-05
1.40993E-05
1.57778E-05
1.72885E-05
1.59457E-05
1.49386E-05
1.35958E-05
1.25887E-05
1.37636E-05
1.59457E-05
1.46029E-05
1.20851E-05
1.19173E-05
1.19173E-05
1.15816E-05
1.2253E-05
1.32601E-05
1.49386E-05
1.32601E-05
1.12459E-05
1.12459E-05
1.12459E-05
1.09102E-05
1.29244E-05
1.35958E-05
1.19173E-05
1.39315E-05
1.561E-05
1.40993E-05
1.25887E-05
1.0071E-05
7.55322E-06
5.20333E-06
4.53193E-06
7.21752E-06
8.56031E-06
9.73526E-06
1.1078E-05
1.0071E-05
7.38537E-06
5.87472E-06
5.53902E-06
6.37827E-06
7.72107E-06
9.23171E-06
8.89601E-06
7.55322E-06
6.54612E-06
6.37827E-06
6.88182E-06
5.20333E-06
4.53193E-06
6.54612E-06
9.73526E-06
1.05745E-05
9.56741E-06
8.22461E-06
9.90311E-06
1.25887E-05
1.32601E-05
1.19173E-05
1.12459E-05
1.25887E-05
1.4435E-05
1.32601E-05
1.05745E-05
1.0071E-05
1.14137E-05
1.15816E-05
1.15816E-05
1.19173E-05
1.32601E-05
1.561E-05
1.59457E-05
1.4435E-05
1.40993E-05
1.2253E-05
1.19173E-05
1.37636E-05
1.49386E-05
1.39315E-05
1.25887E-05
1.12459E-05
1.12459E-05
1.12459E-05
1.05745E-05
1.12459E-05
1.27565E-05
1.2253E-05
1.1078E-05
1.15816E-05
1.27565E-05
1.29244E-05
1.12459E-05
9.23171E-06
9.06386E-06
7.88891E-06
6.54612E-06
9.73526E-06
1.4435E-05
1.64492E-05
1.76242E-05
1.76242E-05
1.51064E-05
1.39315E-05
1.17494E-05
1.04067E-05
1.05745E-05
1.05745E-05
1.14137E-05
1.02388E-05
8.22461E-06
7.88891E-06
8.89601E-06
9.90311E-06
1.14137E-05
1.12459E-05
1.0071E-05
1.02388E-05
1.19173E-05
1.2253E-05
1.25887E-05
1.25887E-05
1.32601E-05
1.42672E-05
1.49386E-05
1.4435E-05
1.32601E-05
1.17494E-05
1.1078E-05
1.25887E-05
1.52743E-05
1.46029E-05
1.37636E-05
1.05745E-05
7.55322E-06
7.55322E-06
9.90311E-06
1.12459E-05
1.15816E-05
1.05745E-05
7.72107E-06
5.70687E-06
6.21042E-06
8.39246E-06
1.15816E-05
1.32601E-05
1.52743E-05
1.51064E-05
1.37636E-05
1.24208E-05
1.12459E-05
8.89601E-06
8.56031E-06
8.72816E-06
9.56741E-06
1.15816E-05
1.25887E-05
1.29244E-05
1.25887E-05
1.17494E-05
1.02388E-05
1.0071E-05
9.73526E-06
1.09102E-05
1.2253E-05
1.19173E-05
1.05745E-05
8.22461E-06
7.21752E-06
6.88182E-06
7.55322E-06
8.72816E-06
1.02388E-05
1.05745E-05
1.09102E-05
1.25887E-05
1.19173E-05
9.23171E-06
6.37827E-06
4.69978E-06
5.87472E-06
8.56031E-06
1.04067E-05
1.05745E-05
9.56741E-06
8.22461E-06
8.89601E-06
9.90311E-06
9.90311E-06
1.05745E-05
1.02388E-05
1.05745E-05
1.05745E-05
7.88891E-06
5.53902E-06
6.54612E-06
9.06386E-06
1.02388E-05
8.89601E-06
7.38537E-06
7.88891E-06
9.90311E-06
1.2253E-05
1.46029E-05
1.57778E-05
1.52743E-05
1.49386E-05
1.52743E-05
1.39315E-05
1.19173E-05
1.12459E-05
1.05745E-05
1.05745E-05
9.56741E-06
9.23171E-06
1.02388E-05
1.04067E-05
8.39246E-06
7.38537E-06
7.04967E-06
7.21752E-06
8.39246E-06
9.23171E-06
8.89601E-06
6.54612E-06
3.18914E-06
2.18204E-06
5.87472E-06
1.04067E-05
1.17494E-05
1.05745E-05
1.04067E-05
1.15816E-05
1.15816E-05
1.15816E-05
1.20851E-05
1.35958E-05
1.29244E-05
1.20851E-05
1.30922E-05
1.39315E-05
1.52743E-05
1.57778E-05
1.51064E-05
1.42672E-05
1.37636E-05
1.19173E-05
1.09102E-05
1.2253E-05
1.39315E-05
1.46029E-05
1.39315E-05
1.32601E-05
1.42672E-05
1.32601E-05
1.2253E-05
1.2253E-05
9.90311E-06
1.02388E-05
1.30922E-05
1.35958E-05
1.29244E-05
1.2253E-05
1.05745E-05
1.15816E-05
1.15816E-05
1.02388E-05
1.12459E-05
1.30922E-05
1.49386E-05
1.59457E-05
1.39315E-05
1.25887E-05
1.46029E-05
1.51064E-05
1.39315E-05
1.17494E-05
9.73526E-06
1.0071E-05
1.32601E-05
1.66171E-05
1.67849E-05
1.46029E-05
1.2253E-05
1.25887E-05
1.46029E-05
1.32601E-05
1.05745E-05
1.05745E-05
9.90311E-06
9.56741E-06
8.89601E-06
8.39246E-06
9.06386E-06
1.05745E-05
1.35958E-05
1.39315E-05
1.17494E-05
9.56741E-06
1.0071E-05
1.14137E-05
1.2253E-05
1.20851E-05
1.05745E-05
9.23171E-06
1.05745E-05
1.25887E-05
1.17494E-05
9.06386E-06
7.21752E-06
7.55322E-06
8.72816E-06
9.73526E-06
1.15816E-05
1.39315E-05
1.35958E-05
1.20851E-05
1.12459E-05
9.23171E-06
7.88891E-06
9.73526E-06
1.19173E-05
1.42672E-05
1.40993E-05
1.12459E-05
1.04067E-05
1.24208E-05
1.25887E-05
1.05745E-05
7.88891E-06
7.55322E-06
8.22461E-06
9.90311E-06
1.15816E-05
1.19173E-05
1.05745E-05
1.05745E-05
1.29244E-05
1.46029E-05
1.25887E-05
9.56741E-06
7.21752E-06
8.72816E-06
9.73526E-06
1.04067E-05
1.2253E-05
1.35958E-05
1.34279E-05
1.05745E-05
7.72107E-06
5.53902E-06
6.21042E-06
8.56031E-06
9.73526E-06
8.56031E-06
8.22461E-06
1.05745E-05
1.35958E-05
1.35958E-05
1.39315E-05
1.40993E-05
1.17494E-05
1.09102E-05
1.15816E-05
1.09102E-05
1.05745E-05
1.25887E-05
1.17494E-05
1.15816E-05
1.19173E-05
1.09102E-05
9.56741E-06
8.72816E-06
8.89601E-06
1.05745E-05
1.19173E-05
1.12459E-05
1.05745E-05
1.02388E-05
9.39956E-06
8.56031E-06
7.88891E-06
9.06386E-06
1.15816E-05
1.12459E-05
9.56741E-06
9.73526E-06
1.05745E-05
1.05745E-05
9.90311E-06
8.39246E-06
7.21752E-06
6.88182E-06
6.71397E-06
9.39956E-06
9.90311E-06
9.23171E-06
9.90311E-06
1.09102E-05
1.19173E-05
1.25887E-05
1.12459E-05
9.90311E-06
1.14137E-05
1.29244E-05
1.42672E-05
1.42672E-05
1.15816E-05
9.90311E-06
1.19173E-05
1.42672E-05
1.42672E-05
1.2253E-05
9.73526E-06
1.04067E-05
1.30922E-05
1.39315E-05
1.02388E-05
9.23171E-06
1.14137E-05
1.32601E-05
1.29244E-05
1.32601E-05
1.59457E-05
1.82956E-05
1.96384E-05
1.79599E-05
1.62814E-05
1.46029E-05
1.46029E-05
1.59457E-05
1.66171E-05
1.46029E-05
9.23171E-06
6.54612E-06
6.54612E-06
8.39246E-06
9.90311E-06
1.05745E-05
1.09102E-05
1.09102E-05
1.2253E-05
1.29244E-05
1.12459E-05
9.23171E-06
5.70687E-06
4.19623E-06
6.37827E-06
8.56031E-06
1.05745E-05
1.30922E-05
1.35958E-05
1.05745E-05
8.89601E-06
7.88891E-06
8.39246E-06
8.56031E-06
8.56031E-06
7.72107E-06
7.04967E-06
7.21752E-06
9.39956E-06
1.12459E-05
1.2253E-05
1.29244E-05
1.05745E-05
7.21752E-06
7.88891E-06
1.05745E-05
1.14137E-05
9.90311E-06
8.22461E-06
8.22461E-06
7.88891E-06
6.37827E-06
5.87472E-06
7.88891E-06
1.0071E-05
1.12459E-05
1.12459E-05
1.05745E-05
9.56741E-06
1.02388E-05
1.2253E-05
1.29244E-05
1.1078E-05
8.89601E-06
9.23171E-06
1.05745E-05
1.17494E-05
1.19173E-05
1.04067E-05
1.02388E-05
1.19173E-05
1.42672E-05
1.42672E-05
1.12459E-05
1.05745E-05
1.2253E-05
1.17494E-05
1.12459E-05
1.27565E-05
1.49386E-05
1.561E-05
1.51064E-05
1.39315E-05
1.29244E-05
1.42672E-05
1.42672E-05
1.19173E-05
1.05745E-05
1.02388E-05
1.09102E-05
1.09102E-05
1.15816E-05
1.02388E-05
8.89601E-06
7.88891E-06
8.89601E-06
1.09102E-05
1.1078E-05
1.02388E-05
1.17494E-05
1.32601E-05
1.4435E-05
1.32601E-05
1.15816E-05
1.25887E-05
1.46029E-05
1.25887E-05
9.23171E-06
7.88891E-06
1.02388E-05
1.35958E-05
1.40993E-05
1.39315E-05
1.30922E-05
1.19173E-05
1.05745E-05
1.12459E-05
1.29244E-05
1.39315E-05
1.25887E-05
9.23171E-06
7.88891E-06
7.72107E-06
8.89601E-06
1.05745E-05
1.20851E-05
1.27565E-05
1.32601E-05
1.32601E-05
1.32601E-05
1.27565E-05
1.2253E-05
1.12459E-05
9.90311E-06
8.22461E-06
6.21042E-06
6.37827E-06
8.72816E-06
1.15816E-05
1.40993E-05
1.27565E-05
1.09102E-05
1.05745E-05
1.05745E-05
1.0071E-05
9.90311E-06
7.21752E-06
3.86053E-06
3.69268E-06
6.88182E-06
8.22461E-06
7.55322E-06
7.72107E-06
9.23171E-06
1.05745E-05
1.15816E-05
1.09102E-05
9.73526E-06
7.88891E-06
8.56031E-06
1.05745E-05
1.35958E-05
1.54421E-05
1.59457E-05
1.62814E-05
1.46029E-05
1.02388E-05
1.0071E-05
1.35958E-05
1.561E-05
1.51064E-05
1.30922E-05
1.12459E-05
9.90311E-06
8.89601E-06
9.06386E-06
1.02388E-05
1.04067E-05
1.04067E-05
1.17494E-05
1.2253E-05
1.09102E-05
1.05745E-05
1.05745E-05
1.1078E-05
1.15816E-05
1.19173E-05
1.1078E-05
1.05745E-05
1.05745E-05
9.06386E-06
9.39956E-06
1.12459E-05
1.1078E-05
1.14137E-05
1.17494E-05
1.04067E-05
8.56031E-06
8.56031E-06
1.04067E-05
1.05745E-05
1.2253E-05
1.34279E-05
1.32601E-05
1.09102E-05
1.0071E-05
1.02388E-05
1.04067E-05
1.1078E-05
1.39315E-05
1.561E-05
1.59457E-05
1.35958E-05
1.12459E-05
1.32601E-05
1.561E-05
1.561E-05
1.46029E-05
1.19173E-05
9.90311E-06
9.73526E-06
1.09102E-05
1.37636E-05
1.39315E-05
1.05745E-05
8.39246E-06
9.90311E-06
1.30922E-05
1.35958E-05
1.25887E-05
1.2253E-05
1.29244E-05
1.19173E-05
1.12459E-05
1.25887E-05
1.46029E-05
1.561E-05
1.46029E-05
1.05745E-05
8.39246E-06
9.23171E-06
1.05745E-05
1.12459E-05
1.25887E-05
1.24208E-05
1.05745E-05
8.56031E-06
9.23171E-06
1.09102E-05
1.2253E-05
9.90311E-06
7.88891E-06
8.89601E-06
8.22461E-06
5.87472E-06
6.21042E-06
7.21752E-06
7.21752E-06
7.04967E-06
7.88891E-06
1.05745E-05
1.19173E-05
1.14137E-05
1.04067E-05
7.04967E-06
6.21042E-06
8.89601E-06
8.89601E-06
5.20333E-06
3.86053E-06
5.87472E-06
7.88891E-06
1.05745E-05
1.19173E-05
1.2253E-05
1.29244E-05
1.17494E-05
1.04067E-05
1.12459E-05
1.32601E-05
1.49386E-05
1.52743E-05
1.4435E-05
1.27565E-05
1.02388E-05
9.06386E-06
1.12459E-05
1.39315E-05
1.35958E-05
1.32601E-05
1.27565E-05
1.42672E-05
1.62814E-05
1.52743E-05
1.27565E-05
1.05745E-05
9.73526E-06
1.17494E-05
1.49386E-05
1.59457E-05
1.52743E-05
1.25887E-05
1.05745E-05
1.02388E-05
1.02388E-05
9.90311E-06
9.39956E-06
9.23171E-06
9.23171E-06
1.09102E-05
1.12459E-05
9.56741E-06
8.56031E-06
9.23171E-06
1.17494E-05
1.32601E-05
1.15816E-05
9.73526E-06
1.09102E-05
1.27565E-05
1.17494E-05
9.23171E-06
7.55322E-06
8.39246E-06
1.19173E-05
1.30922E-05
9.73526E-06
6.88182E-06
6.54612E-06
8.56031E-06
1.02388E-05
1.1078E-05
1.1078E-05
1.12459E-05
1.14137E-05
1.17494E-05
1.19173E-05
1.19173E-05
1.29244E-05
1.30922E-05
1.1078E-05
9.56741E-06
9.23171E-06
8.05676E-06
6.54612E-06
5.53902E-06
5.53902E-06
6.88182E-06
9.56741E-06
1.2253E-05
1.25887E-05
1.25887E-05
1.19173E-05
1.04067E-05
9.23171E-06
1.05745E-05
1.30922E-05
1.24208E-05
1.12459E-05
1.1078E-05
1.1078E-05
1.09102E-05
1.1078E-05
1.02388E-05
1.0071E-05
1.04067E-05
1.1078E-05
1.12459E-05
9.23171E-06
7.88891E-06
9.06386E-06
9.23171E-06
8.89601E-06
8.22461E-06
8.39246E-06
9.23171E-06
8.72816E-06
7.72107E-06
7.72107E-06
8.72816E-06
8.56031E-06
9.56741E-06
1.12459E-05
1.12459E-05
1.09102E-05
1.17494E-05
1.12459E-05
1.29244E-05
1.39315E-05
1.40993E-05
1.42672E-05
1.29244E-05
1.25887E-05
1.49386E-05
1.57778E-05
1.32601E-05
1.05745E-05
9.90311E-06
1.12459E-05
1.30922E-05
1.29244E-05
1.19173E-05
1.15816E-05
1.05745E-05
1.04067E-05
9.90311E-06
8.72816E-06
9.23171E-06
1.2253E-05
1.29244E-05
1.19173E-05
1.25887E-05
1.39315E-05
1.40993E-05
1.14137E-05
9.90311E-06
1.2253E-05
1.51064E-05
1.46029E-05
1.2253E-05
9.06386E-06
7.55322E-06
9.56741E-06
1.30922E-05
1.51064E-05
1.35958E-05
1.12459E-05
1.09102E-05
1.2253E-05
1.09102E-05
9.73526E-06
1.05745E-05
1.19173E-05
1.19173E-05
1.12459E-05
1.17494E-05
1.15816E-05
1.05745E-05
1.05745E-05
1.15816E-05
9.73526E-06
7.88891E-06
8.22461E-06
8.56031E-06
8.39246E-06
8.22461E-06
7.55322E-06
8.89601E-06
1.05745E-05
1.17494E-05
1.25887E-05
1.32601E-05
1.30922E-05
1.32601E-05
1.42672E-05
1.49386E-05
1.32601E-05
1.05745E-05
8.89601E-06
9.23171E-06
1.02388E-05
1.05745E-05
1.1078E-05
1.05745E-05
9.56741E-06
8.39246E-06
7.55322E-06
8.89601E-06
1.19173E-05
1.37636E-05
1.19173E-05
8.72816E-06
7.04967E-06
8.56031E-06
1.05745E-05
1.05745E-05
9.23171E-06
9.06386E-06
8.72816E-06
8.22461E-06
1.19173E-05
1.47707E-05
1.39315E-05
1.40993E-05
1.561E-05
1.66171E-05
1.76242E-05
1.81277E-05
1.66171E-05
1.561E-05
1.39315E-05
1.39315E-05
1.35958E-05
1.14137E-05
1.05745E-05
1.29244E-05
1.52743E-05
1.561E-05
1.32601E-05
1.25887E-05
1.32601E-05
1.37636E-05
1.32601E-05
1.24208E-05
1.19173E-05
1.35958E-05
1.561E-05
1.52743E-05
1.15816E-05
9.23171E-06
9.56741E-06
1.05745E-05
1.04067E-05
1.05745E-05
9.23171E-06
6.21042E-06
3.86053E-06
3.86053E-06
5.03548E-06
5.70687E-06
7.21752E-06
9.23171E-06
8.72816E-06
7.04967E-06
6.71397E-06
5.87472E-06
6.37827E-06
8.56031E-06
9.06386E-06
7.88891E-06
5.03548E-06
6.88182E-06
1.19173E-05
1.40993E-05
1.05745E-05
9.56741E-06
9.90311E-06
1.02388E-05
1.15816E-05
1.32601E-05
1.24208E-05
1.19173E-05
1.37636E-05
1.46029E-05
1.29244E-05
1.05745E-05
1.09102E-05
1.30922E-05
1.32601E-05
1.15816E-05
1.19173E-05
1.29244E-05
1.39315E-05
1.27565E-05
9.56741E-06
7.88891E-06
9.23171E-06
1.19173E-05
1.27565E-05
1.1078E-05
9.56741E-06
7.55322E-06
7.21752E-06
1.02388E-05
1.17494E-05
1.2253E-05
1.24208E-05
1.19173E-05
1.02388E-05
1.05745E-05
1.15816E-05
1.12459E-05
1.25887E-05
1.32601E-05
1.12459E-05
9.73526E-06
7.88891E-06
7.55322E-06
1.05745E-05
1.32601E-05
1.19173E-05
9.06386E-06
7.88891E-06
1.05745E-05
1.37636E-05
1.2253E-05
1.05745E-05
9.23171E-06
8.22461E-06
9.06386E-06
1.0071E-05
9.73526E-06
1.02388E-05
1.05745E-05
9.73526E-06
9.06386E-06
8.56031E-06
7.55322E-06
8.89601E-06
1.02388E-05
1.14137E-05
1.12459E-05
9.73526E-06
9.23171E-06
1.05745E-05
1.15816E-05
1.35958E-05
1.57778E-05
1.4435E-05
1.32601E-05
1.37636E-05
1.49386E-05
1.46029E-05
1.24208E-05
9.90311E-06
1.19173E-05
1.561E-05
1.561E-05
1.46029E-05
1.59457E-05
1.72885E-05
1.561E-05
1.32601E-05
1.24208E-05
1.32601E-05
1.46029E-05
1.32601E-05
1.04067E-05
8.39246E-06
8.72816E-06
1.17494E-05
1.46029E-05
1.69528E-05
1.71206E-05
1.32601E-05
1.05745E-05
1.09102E-05
1.05745E-05
9.23171E-06
7.38537E-06
5.87472E-06
6.37827E-06
8.39246E-06
8.39246E-06
1.0071E-05
1.24208E-05
1.15816E-05
9.90311E-06
8.89601E-06
1.0071E-05
1.2253E-05
9.90311E-06
6.88182E-06
6.04257E-06
4.53193E-06
2.18204E-06
3.18914E-06
6.54612E-06
9.90311E-06
1.02388E-05
8.89601E-06
8.89601E-06
9.56741E-06
9.90311E-06
1.17494E-05
1.39315E-05
1.35958E-05
1.17494E-05
1.15816E-05
1.04067E-05
8.56031E-06
9.90311E-06
1.12459E-05
1.37636E-05
1.52743E-05
1.39315E-05
1.35958E-05
1.39315E-05
1.19173E-05
8.56031E-06
6.88182E-06
7.55322E-06
1.02388E-05
1.30922E-05
1.39315E-05
1.25887E-05
8.89601E-06
8.22461E-06
1.12459E-05
1.35958E-05
1.27565E-05
1.24208E-05
1.1078E-05
1.02388E-05
1.1078E-05
1.19173E-05
1.12459E-05
1.05745E-05
1.2253E-05
1.42672E-05
1.27565E-05
9.56741E-06
8.56031E-06
1.02388E-05
1.32601E-05
1.46029E-05
1.46029E-05
1.27565E-05
1.39315E-05
1.66171E-05
1.76242E-05
1.59457E-05
1.35958E-05
1.4435E-05
1.71206E-05
1.52743E-05
1.14137E-05
1.02388E-05
9.06386E-06
9.23171E-06
1.05745E-05
1.15816E-05
1.05745E-05
8.89601E-06
5.70687E-06
4.53193E-06
6.54612E-06
8.22461E-06
7.88891E-06
7.88891E-06
7.72107E-06
8.56031E-06
9.06386E-06
7.55322E-06
7.88891E-06
1.05745E-05
1.2253E-05
1.39315E-05
1.39315E-05
1.42672E-05
1.561E-05
1.52743E-05
1.40993E-05
1.39315E-05
1.29244E-05
1.29244E-05
1.37636E-05
1.32601E-05
1.09102E-05
9.73526E-06
8.89601E-06
1.04067E-05
1.24208E-05
1.2253E-05
1.2253E-05
1.42672E-05
1.59457E-05
1.561E-05
1.29244E-05
1.12459E-05
1.27565E-05
1.39315E-05
1.32601E-05
1.2253E-05
1.1078E-05
1.12459E-05
1.25887E-05
1.2253E-05
1.12459E-05
9.73526E-06
8.56031E-06
9.90311E-06
1.02388E-05
1.05745E-05
1.12459E-05
1.05745E-05
1.04067E-05
1.05745E-05
9.06386E-06
7.38537E-06
9.39956E-06
1.19173E-05
1.15816E-05
1.05745E-05
1.12459E-05
1.12459E-05
1.2253E-05
1.30922E-05
1.39315E-05
1.42672E-05
1.29244E-05
1.2253E-05
1.29244E-05
1.39315E-05
1.39315E-05
1.2253E-05
9.56741E-06
8.22461E-06
9.56741E-06
1.15816E-05
1.17494E-05
9.90311E-06
8.89601E-06
9.56741E-06
9.90311E-06
8.22461E-06
8.72816E-06
1.05745E-05
9.56741E-06
7.88891E-06
5.53902E-06
4.53193E-06
5.53902E-06
7.55322E-06
9.56741E-06
1.04067E-05
8.56031E-06
6.88182E-06
6.21042E-06
8.89601E-06
1.02388E-05
9.56741E-06
7.88891E-06
7.88891E-06
1.05745E-05
1.12459E-05
9.90311E-06
8.72816E-06
8.56031E-06
9.56741E-06
8.89601E-06
8.39246E-06
1.02388E-05
1.19173E-05
1.12459E-05
1.05745E-05
9.73526E-06
8.72816E-06
7.88891E-06
9.56741E-06
1.1078E-05
9.56741E-06
5.87472E-06
4.36408E-06
5.87472E-06
7.21752E-06
7.55322E-06
9.56741E-06
1.17494E-05
1.30922E-05
1.39315E-05
1.46029E-05
1.49386E-05
1.4435E-05
1.25887E-05
1.1078E-05
1.12459E-05
1.25887E-05
1.37636E-05
1.71206E-05
1.76242E-05
1.59457E-05
1.42672E-05
1.2253E-05
1.05745E-05
1.05745E-05
1.29244E-05
1.37636E-05
1.32601E-05
1.30922E-05
1.32601E-05
1.30922E-05
1.19173E-05
1.05745E-05
1.0071E-05
1.04067E-05
1.19173E-05
1.14137E-05
1.0071E-05
1.19173E-05
1.29244E-05
1.29244E-05
1.2253E-05
1.12459E-05
1.04067E-05
1.02388E-05
9.73526E-06
9.90311E-06
9.90311E-06
1.02388E-05
1.19173E-05
1.35958E-05
1.24208E-05
1.04067E-05
9.56741E-06
1.09102E-05
1.29244E-05
1.37636E-05
1.47707E-05
1.561E-05
1.27565E-05
9.56741E-06
8.72816E-06
7.88891E-06
6.21042E-06
6.54612E-06
7.72107E-06
8.56031E-06
7.88891E-06
6.04257E-06
4.19623E-06
3.18914E-06
6.04257E-06
1.02388E-05
1.19173E-05
1.15816E-05
1.30922E-05
1.52743E-05
1.46029E-05
1.05745E-05
7.21752E-06
5.20333E-06
7.88891E-06
9.73526E-06
8.56031E-06
6.88182E-06
5.70687E-06
7.04967E-06
9.90311E-06
1.17494E-05
1.19173E-05
1.2253E-05
1.2253E-05
1.32601E-05
1.25887E-05
1.19173E-05
1.15816E-05
1.32601E-05
1.49386E-05
1.32601E-05
9.39956E-06
8.39246E-06
9.90311E-06
1.39315E-05
1.76242E-05
1.71206E-05
1.40993E-05
1.2253E-05
1.27565E-05
1.29244E-05
1.27565E-05
1.29244E-05
1.29244E-05
1.39315E-05
1.59457E-05
1.69528E-05
1.69528E-05
1.69528E-05
1.59457E-05
1.561E-05
1.29244E-05
1.02388E-05
1.09102E-05
1.32601E-05
1.19173E-05
1.05745E-05
1.02388E-05
1.09102E-05
1.30922E-05
1.39315E-05
1.30922E-05
1.32601E-05
1.35958E-05
1.32601E-05
1.12459E-05
7.88891E-06
8.56031E-06
9.23171E-06
7.21752E-06
6.21042E-06
8.89601E-06
1.05745E-05
8.72816E-06
6.54612E-06
7.38537E-06
1.05745E-05
1.05745E-05
7.55322E-06
5.53902E-06
7.21752E-06
1.09102E-05
1.30922E-05
1.19173E-05
9.90311E-06
9.23171E-06
8.56031E-06
7.38537E-06
5.87472E-06
5.20333E-06
5.20333E-06
6.37827E-06
9.73526E-06
1.29244E-05
1.24208E-05
1.09102E-05
1.17494E-05
1.42672E-05
1.59457E-05
1.561E-05
1.47707E-05
1.37636E-05
1.39315E-05
1.24208E-05
1.05745E-05
1.37636E-05
1.69528E-05
1.72885E-05
1.561E-05
1.49386E-05
1.4435E-05
1.39315E-05
1.39315E-05
1.47707E-05
1.4435E-05
1.25887E-05
1.25887E-05
1.32601E-05
1.2253E-05
1.17494E-05
1.25887E-05
1.30922E-05
1.29244E-05
1.02388E-05
7.88891E-06
8.39246E-06
9.90311E-06
9.23171E-06
7.55322E-06
6.54612E-06
7.21752E-06
1.05745E-05
1.39315E-05
1.35958E-05
1.04067E-05
7.21752E-06
7.55322E-06
1.04067E-05
1.20851E-05
1.35958E-05
1.29244E-05
9.56741E-06
9.23171E-06
1.19173E-05
1.35958E-05
1.32601E-05
1.37636E-05
1.29244E-05
1.02388E-05
1.05745E-05
1.32601E-05
1.39315E-05
1.30922E-05
1.19173E-05
1.14137E-05
1.05745E-05
8.89601E-06
9.23171E-06
1.15816E-05
1.29244E-05
1.19173E-05
1.02388E-05
8.39246E-06
9.56741E-06
1.14137E-05
1.12459E-05
9.90311E-06
7.88891E-06
7.04967E-06
8.22461E-06
8.22461E-06
7.38537E-06
8.22461E-06
1.0071E-05
1.15816E-05
1.05745E-05
9.23171E-06
9.90311E-06
1.24208E-05
1.24208E-05
9.90311E-06
7.55322E-06
7.21752E-06
8.56031E-06
7.88891E-06
8.05676E-06
8.72816E-06
9.56741E-06
1.0071E-05
1.09102E-05
9.56741E-06
8.22461E-06
8.56031E-06
8.56031E-06
7.88891E-06
7.38537E-06
8.22461E-06
1.19173E-05
1.39315E-05
1.19173E-05
9.56741E-06
9.06386E-06
8.89601E-06
1.0071E-05
1.17494E-05
1.25887E-05
1.42672E-05
1.46029E-05
1.2253E-05
1.1078E-05
1.25887E-05
1.19173E-05
1.02388E-05
8.56031E-06
8.89601E-06
9.90311E-06
9.23171E-06
8.56031E-06
1.04067E-05
1.1078E-05
9.23171E-06
9.06386E-06
1.02388E-05
1.1078E-05
9.23171E-06
7.21752E-06
7.21752E-06
7.88891E-06
9.06386E-06
9.90311E-06
9.23171E-06
7.38537E-06
8.56031E-06
1.05745E-05
1.05745E-05
1.15816E-05
1.24208E-05
1.24208E-05
1.25887E-05
1.12459E-05
9.23171E-06
9.23171E-06
9.90311E-06
1.05745E-05
1.17494E-05
1.02388E-05
8.72816E-06
9.06386E-06
1.05745E-05
1.15816E-05
1.25887E-05
1.19173E-05
1.15816E-05
1.24208E-05
1.24208E-05
1.12459E-05
1.19173E-05
1.2253E-05
1.35958E-05
1.46029E-05
1.25887E-05
1.05745E-05
1.17494E-05
1.42672E-05
1.59457E-05
1.59457E-05
1.49386E-05
1.4435E-05
1.37636E-05
1.35958E-05
1.39315E-05
1.32601E-05
1.32601E-05
1.32601E-05
1.1078E-05
1.0071E-05
1.02388E-05
1.09102E-05
1.4435E-05
1.72885E-05
1.72885E-05
1.52743E-05
1.39315E-05
1.4435E-05
1.561E-05
1.39315E-05
1.20851E-05
1.39315E-05
1.72885E-05
1.67849E-05
1.46029E-05
1.17494E-05
1.02388E-05
1.2253E-05
1.32601E-05
1.39315E-05
1.32601E-05
1.25887E-05
1.29244E-05
1.37636E-05
1.30922E-05
9.90311E-06
8.39246E-06
9.23171E-06
1.02388E-05
1.12459E-05
1.25887E-05
1.19173E-05
9.39956E-06
8.22461E-06
7.38537E-06
5.53902E-06
4.36408E-06
5.20333E-06
7.88891E-06
1.02388E-05
1.02388E-05
9.06386E-06
9.23171E-06
9.73526E-06
9.23171E-06
1.02388E-05
1.17494E-05
1.1078E-05
1.05745E-05
1.12459E-05
1.2253E-05
1.40993E-05
1.35958E-05
1.05745E-05
9.90311E-06
1.12459E-05
1.2253E-05
1.17494E-05
1.05745E-05
8.89601E-06
7.55322E-06
6.21042E-06
7.55322E-06
9.56741E-06
1.04067E-05
1.19173E-05
1.20851E-05
9.56741E-06
9.23171E-06
1.12459E-05
1.1078E-05
9.56741E-06
9.73526E-06
1.05745E-05
1.0071E-05
9.23171E-06
1.09102E-05
1.25887E-05
1.32601E-05
9.56741E-06
6.37827E-06
7.88891E-06
1.19173E-05
1.30922E-05
1.2253E-05
1.12459E-05
1.15816E-05
1.02388E-05
9.39956E-06
1.02388E-05
1.04067E-05
8.22461E-06
6.54612E-06
6.88182E-06
7.55322E-06
8.72816E-06
1.05745E-05
1.25887E-05
1.27565E-05
1.02388E-05
8.89601E-06
9.39956E-06
1.14137E-05
1.19173E-05
1.12459E-05
8.56031E-06
5.87472E-06
5.87472E-06
6.88182E-06
7.88891E-06
9.90311E-06
1.05745E-05
1.04067E-05
8.72816E-06
8.22461E-06
9.56741E-06
1.05745E-05
1.19173E-05
1.52743E-05
1.52743E-05
1.17494E-05
9.23171E-06
9.06386E-06
9.56741E-06
1.02388E-05
1.02388E-05
1.15816E-05
1.19173E-05
1.15816E-05
1.25887E-05
1.29244E-05
1.02388E-05
9.23171E-06
1.15816E-05
1.39315E-05
1.49386E-05
1.49386E-05
1.561E-05
1.69528E-05
1.62814E-05
1.32601E-05
1.19173E-05
1.24208E-05
1.35958E-05
1.25887E-05
1.02388E-05
8.72816E-06
8.89601E-06
8.56031E-06
9.23171E-06
1.12459E-05
1.30922E-05
1.52743E-05
1.69528E-05
1.51064E-05
1.25887E-05
1.27565E-05
1.14137E-05
8.56031E-06
7.21752E-06
7.72107E-06
8.56031E-06
9.73526E-06
8.39246E-06
6.54612E-06
6.88182E-06
5.87472E-06
4.86763E-06
5.87472E-06
9.06386E-06
1.15816E-05
1.27565E-05
1.35958E-05
1.46029E-05
1.49386E-05
1.32601E-05
1.04067E-05
7.72107E-06
9.23171E-06
1.2253E-05
1.29244E-05
1.19173E-05
1.12459E-05
1.05745E-05
1.09102E-05
1.35958E-05
1.57778E-05
1.47707E-05
1.19173E-05
9.73526E-06
1.0071E-05
1.24208E-05
1.29244E-05
1.35958E-05
1.59457E-05
1.62814E-05
1.59457E-05
1.561E-05
1.24208E-05
8.56031E-06
9.23171E-06
1.17494E-05
1.19173E-05
1.12459E-05
1.05745E-05
1.17494E-05
1.25887E-05
1.32601E-05
1.35958E-05
1.1078E-05
9.23171E-06
1.1078E-05
1.39315E-05
1.35958E-05
1.24208E-05
1.19173E-05
1.25887E-05
1.12459E-05
9.23171E-06
1.1078E-05
1.39315E-05
1.47707E-05
1.24208E-05
9.73526E-06
9.23171E-06
1.1078E-05
1.35958E-05
1.32601E-05
1.15816E-05
9.56741E-06
9.56741E-06
1.15816E-05
1.30922E-05
1.29244E-05
1.39315E-05
1.46029E-05
1.39315E-05
1.19173E-05
1.05745E-05
8.22461E-06
7.55322E-06
7.88891E-06
8.89601E-06
9.90311E-06
1.14137E-05
1.25887E-05
1.35958E-05
1.19173E-05
8.39246E-06
5.03548E-06
2.51774E-06
4.19623E-06
7.88891E-06
1.05745E-05
1.09102E-05
1.04067E-05
9.56741E-06
7.88891E-06
7.88891E-06
9.23171E-06
9.90311E-06
8.56031E-06
7.88891E-06
7.38537E-06
7.55322E-06
6.04257E-06
5.70687E-06
6.37827E-06
8.22461E-06
1.05745E-05
1.04067E-05
1.02388E-05
9.90311E-06
9.56741E-06
9.39956E-06
8.56031E-06
7.38537E-06
9.23171E-06
9.06386E-06
7.38537E-06
8.22461E-06
1.14137E-05
1.2253E-05
1.19173E-05
1.27565E-05
1.37636E-05
1.32601E-05
9.56741E-06
6.21042E-06
6.21042E-06
6.37827E-06
6.37827E-06
6.88182E-06
5.20333E-06
6.37827E-06
8.56031E-06
9.23171E-06
1.20851E-05
1.42672E-05
1.561E-05
1.59457E-05
1.4435E-05
1.25887E-05
1.35958E-05
1.59457E-05
1.59457E-05
1.49386E-05
1.42672E-05
1.46029E-05
1.66171E-05
1.66171E-05
1.52743E-05
1.39315E-05
1.39315E-05
1.35958E-05
1.12459E-05
1.02388E-05
1.12459E-05
1.27565E-05
1.12459E-05
1.12459E-05
1.17494E-05
1.20851E-05
1.2253E-05
1.32601E-05
1.42672E-05
1.30922E-05
1.32601E-05
1.42672E-05
1.47707E-05
1.32601E-05
1.32601E-05
1.32601E-05
1.15816E-05
1.02388E-05
1.09102E-05
1.29244E-05
1.25887E-05
1.05745E-05
7.38537E-06
7.04967E-06
1.04067E-05
1.39315E-05
1.49386E-05
1.51064E-05
1.20851E-05
9.23171E-06
9.23171E-06
1.05745E-05
1.24208E-05
1.51064E-05
1.76242E-05
1.69528E-05
1.32601E-05
1.09102E-05
1.19173E-05
1.19173E-05
8.22461E-06
6.21042E-06
6.37827E-06
6.54612E-06
8.89601E-06
9.73526E-06
8.56031E-06
8.56031E-06
8.89601E-06
9.73526E-06
1.12459E-05
1.02388E-05
7.38537E-06
9.06386E-06
1.32601E-05
1.51064E-05
1.35958E-05
1.2253E-05
1.32601E-05
1.46029E-05
1.42672E-05
1.32601E-05
1.1078E-05
8.89601E-06
1.05745E-05
1.32601E-05
1.35958E-05
1.09102E-05
7.88891E-06
8.56031E-06
1.29244E-05
1.561E-05
1.561E-05
1.32601E-05
1.19173E-05
1.25887E-05
1.47707E-05
1.59457E-05
1.4435E-05
1.19173E-05
9.23171E-06
9.90311E-06
1.17494E-05
1.17494E-05
1.1078E-05
1.12459E-05
1.19173E-05
1.12459E-05
7.55322E-06
4.02838E-06
5.87472E-06
9.23171E-06
1.12459E-05
9.23171E-06
7.21752E-06
6.21042E-06
7.38537E-06
7.55322E-06
7.04967E-06
7.88891E-06
8.89601E-06
9.23171E-06
9.90311E-06
1.04067E-05
9.90311E-06
1.04067E-05
1.05745E-05
1.05745E-05
9.73526E-06
9.56741E-06
9.56741E-06
9.56741E-06
9.23171E-06
9.90311E-06
1.05745E-05
1.25887E-05
1.30922E-05
1.24208E-05
1.19173E-05
1.14137E-05
1.14137E-05
1.17494E-05
1.29244E-05
1.24208E-05
1.05745E-05
7.72107E-06
4.69978E-06
4.53193E-06
4.86763E-06
4.53193E-06
3.69268E-06
5.03548E-06
7.21752E-06
8.22461E-06
7.88891E-06
7.55322E-06
9.06386E-06
1.02388E-05
8.56031E-06
7.55322E-06
7.88891E-06
8.89601E-06
8.39246E-06
7.88891E-06
8.39246E-06
9.23171E-06
8.56031E-06
7.88891E-06
9.90311E-06
1.12459E-05
1.02388E-05
9.73526E-06
9.73526E-06
1.14137E-05
1.32601E-05
1.52743E-05
1.66171E-05
1.561E-05
1.29244E-05
1.25887E-05
1.35958E-05
1.32601E-05
1.52743E-05
1.7792E-05
1.76242E-05
1.64492E-05
1.32601E-05
1.25887E-05
1.42672E-05
1.62814E-05
1.52743E-05
1.32601E-05
1.19173E-05
1.19173E-05
1.35958E-05
1.42672E-05
1.32601E-05
1.19173E-05
9.90311E-06
1.0071E-05
1.2253E-05
1.42672E-05
1.29244E-05
1.15816E-05
1.05745E-05
1.17494E-05
1.19173E-05
9.90311E-06
9.56741E-06
1.12459E-05
1.25887E-05
1.20851E-05
1.12459E-05
1.1078E-05
1.09102E-05
1.19173E-05
1.24208E-05
1.19173E-05
9.56741E-06
7.04967E-06
5.87472E-06
7.88891E-06
1.1078E-05
1.39315E-05
1.46029E-05
1.27565E-05
1.12459E-05
1.05745E-05
1.05745E-05
1.05745E-05
7.88891E-06
5.53902E-06
6.21042E-06
8.56031E-06
1.17494E-05
1.35958E-05
1.4435E-05
1.25887E-05
1.0071E-05
8.89601E-06
9.06386E-06
8.56031E-06
9.23171E-06
9.73526E-06
7.38537E-06
5.87472E-06
6.88182E-06
9.23171E-06
1.15816E-05
1.29244E-05
1.32601E-05
1.46029E-05
1.4435E-05
1.32601E-05
1.25887E-05
1.59457E-05
1.86313E-05
1.96384E-05
1.82956E-05
1.561E-05
1.4435E-05
1.32601E-05
1.20851E-05
1.19173E-05
1.12459E-05
1.12459E-05
1.29244E-05
1.32601E-05
1.15816E-05
1.14137E-05
9.90311E-06
8.72816E-06
1.05745E-05
1.4435E-05
1.30922E-05
1.02388E-05
9.56741E-06
1.05745E-05
8.56031E-06
3.86053E-06
1.17494E-06
1.84634E-06
4.86763E-06
7.88891E-06
9.90311E-06
9.73526E-06
9.73526E-06
1.0071E-05
9.90311E-06
8.56031E-06
5.70687E-06
5.87472E-06
8.56031E-06
1.02388E-05
1.1078E-05
1.25887E-05
1.2253E-05
1.05745E-05
1.20851E-05
1.37636E-05
1.32601E-05
1.25887E-05
1.29244E-05
1.51064E-05
1.69528E-05
1.72885E-05
1.71206E-05
1.39315E-05
1.20851E-05
1.39315E-05
1.59457E-05
1.69528E-05
1.69528E-05
1.52743E-05
1.46029E-05
1.35958E-05
1.0071E-05
8.56031E-06
1.14137E-05
1.42672E-05
1.39315E-05
1.27565E-05
1.12459E-05
1.05745E-05
1.02388E-05
1.0071E-05
9.56741E-06
7.55322E-06
3.86053E-06
3.86053E-06
5.20333E-06
5.87472E-06
7.88891E-06
9.73526E-06
1.09102E-05
1.19173E-05
1.05745E-05
8.89601E-06
1.04067E-05
1.25887E-05
1.49386E-05
1.561E-05
1.29244E-05
1.05745E-05
1.05745E-05
1.25887E-05
1.39315E-05
1.561E-05
1.52743E-05
1.46029E-05
1.52743E-05
1.39315E-05
1.2253E-05
1.05745E-05
6.54612E-06
5.20333E-06
6.71397E-06
8.89601E-06
7.88891E-06
7.21752E-06
7.21752E-06
8.56031E-06
9.23171E-06
9.90311E-06
9.73526E-06
1.02388E-05
8.56031E-06
6.88182E-06
6.37827E-06
8.22461E-06
1.05745E-05
1.09102E-05
1.14137E-05
1.05745E-05
1.12459E-05
1.32601E-05
1.52743E-05
1.59457E-05
1.52743E-05
1.32601E-05
1.04067E-05
1.14137E-05
1.4435E-05
1.49386E-05
1.25887E-05
1.12459E-05
1.17494E-05
1.27565E-05
1.29244E-05
1.05745E-05
7.88891E-06
7.88891E-06
8.56031E-06
7.88891E-06
7.55322E-06
7.88891E-06
9.06386E-06
1.04067E-05
1.17494E-05
1.05745E-05
7.38537E-06
6.71397E-06
8.22461E-06
8.56031E-06
7.55322E-06
7.21752E-06
7.72107E-06
9.39956E-06
1.2253E-05
1.25887E-05
1.05745E-05
9.56741E-06
9.23171E-06
8.56031E-06
6.21042E-06
5.53902E-06
7.55322E-06
9.56741E-06
9.23171E-06
9.90311E-06
9.73526E-06
8.22461E-06
8.39246E-06
7.88891E-06
7.88891E-06
5.87472E-06
3.02129E-06
3.02129E-06
7.04967E-06
9.56741E-06
9.56741E-06
8.89601E-06
8.39246E-06
8.56031E-06
7.72107E-06
6.88182E-06
7.21752E-06
9.56741E-06
1.17494E-05
1.19173E-05
1.15816E-05
1.09102E-05
1.39315E-05
1.54421E-05
1.29244E-05
1.09102E-05
1.05745E-05
1.09102E-05
1.2253E-05
1.40993E-05
1.42672E-05
1.32601E-05
1.25887E-05
1.2253E-05
1.29244E-05
1.39315E-05
1.40993E-05
1.52743E-05
1.52743E-05
1.51064E-05
1.52743E-05
1.39315E-05
1.25887E-05
1.24208E-05
1.29244E-05
1.30922E-05
1.15816E-05
1.05745E-05
1.32601E-05
1.39315E-05
1.39315E-05
1.32601E-05
9.90311E-06
9.23171E-06
1.15816E-05
1.32601E-05
1.42672E-05
1.47707E-05
1.49386E-05
1.52743E-05
1.64492E-05
1.76242E-05
1.76242E-05
1.59457E-05
1.15816E-05
8.56031E-06
8.89601E-06
1.15816E-05
1.24208E-05
1.29244E-05
1.17494E-05
9.73526E-06
8.56031E-06
9.56741E-06
1.1078E-05
1.12459E-05
1.09102E-05
9.73526E-06
8.56031E-06
9.56741E-06
1.24208E-05
1.39315E-05
1.42672E-05
1.49386E-05
1.47707E-05
1.49386E-05
1.64492E-05
1.59457E-05
1.4435E-05
1.20851E-05
8.72816E-06
8.22461E-06
1.12459E-05
1.29244E-05
1.05745E-05
1.02388E-05
1.05745E-05
1.05745E-05
1.12459E-05
1.05745E-05
1.09102E-05
1.12459E-05
1.25887E-05
1.39315E-05
1.19173E-05
1.05745E-05
1.12459E-05
1.25887E-05
1.46029E-05
1.4435E-05
1.19173E-05
1.1078E-05
1.29244E-05
1.32601E-05
1.32601E-05
1.29244E-05
9.90311E-06
7.88891E-06
9.39956E-06
1.09102E-05
1.24208E-05
1.35958E-05
1.2253E-05
1.12459E-05
1.0071E-05
9.56741E-06
9.23171E-06
8.05676E-06
6.54612E-06
7.88891E-06
8.56031E-06
7.04967E-06
7.88891E-06
9.90311E-06
1.0071E-05
9.90311E-06
6.88182E-06
2.68559E-06
2.18204E-06
5.87472E-06
1.04067E-05
1.02388E-05
7.04967E-06
5.53902E-06
6.88182E-06
1.04067E-05
1.02388E-05
8.56031E-06
8.56031E-06
8.72816E-06
8.89601E-06
8.56031E-06
9.73526E-06
1.17494E-05
1.12459E-05
1.05745E-05
1.12459E-05
1.15816E-05
1.20851E-05
1.29244E-05
1.46029E-05
1.49386E-05
1.25887E-05
1.1078E-05
1.19173E-05
1.52743E-05
1.62814E-05
1.46029E-05
1.05745E-05
7.88891E-06
8.22461E-06
7.04967E-06
5.87472E-06
7.21752E-06
9.56741E-06
1.12459E-05
9.90311E-06
7.72107E-06
7.88891E-06
9.23171E-06
1.0071E-05
9.39956E-06
6.54612E-06
5.20333E-06
7.38537E-06
8.39246E-06
6.88182E-06
5.70687E-06
5.53902E-06
6.37827E-06
8.72816E-06
9.39956E-06
1.05745E-05
1.30922E-05
1.2253E-05
1.05745E-05
1.02388E-05
1.05745E-05
1.27565E-05
1.40993E-05
1.32601E-05
1.35958E-05
1.29244E-05
1.32601E-05
1.54421E-05
1.67849E-05
1.76242E-05
1.93027E-05
2.03098E-05
2.03098E-05
1.99741E-05
1.99741E-05
1.79599E-05
1.49386E-05
1.15816E-05
8.56031E-06
8.89601E-06
9.56741E-06
8.22461E-06
7.04967E-06
7.21752E-06
1.04067E-05
1.37636E-05
1.49386E-05
1.49386E-05
1.57778E-05
1.57778E-05
1.49386E-05
1.12459E-05
8.56031E-06
9.56741E-06
9.90311E-06
8.89601E-06
9.56741E-06
9.73526E-06
9.39956E-06
1.04067E-05
1.12459E-05
1.05745E-05
9.23171E-06
7.55322E-06
7.04967E-06
7.04967E-06
7.04967E-06
8.22461E-06
9.23171E-06
8.56031E-06
8.22461E-06
9.23171E-06
9.56741E-06
9.23171E-06
9.56741E-06
1.04067E-05
1.09102E-05
9.06386E-06
6.54612E-06
6.54612E-06
8.39246E-06
8.22461E-06
6.37827E-06
6.37827E-06
7.55322E-06
1.04067E-05
1.32601E-05
1.37636E-05
1.54421E-05
1.59457E-05
1.42672E-05
1.32601E-05
1.35958E-05
1.25887E-05
9.06386E-06
6.88182E-06
7.04967E-06
8.56031E-06
1.02388E-05
9.23171E-06
8.22461E-06
8.39246E-06
9.90311E-06
1.19173E-05
1.25887E-05
1.19173E-05
1.19173E-05
1.30922E-05
1.42672E-05
1.29244E-05
1.14137E-05
1.05745E-05
9.56741E-06
8.56031E-06
9.23171E-06
8.56031E-06
