Label: R BICEPS BRACHII: EMG 1 Sampling frequency: 1,925926e+003 Number of points: 58682 start: 0,000000e+000 Unit: Volts Domain Unit: s
Label: R BICEPS BRACHII: Acc 1.X Sampling frequency: 1,481481e+002 Number of points: 4514 start: 0,000000e+000 Unit: g Domain Unit: s
Label: R BICEPS BRACHII: Acc 1.Y Sampling frequency: 1,481481e+002 Number of points: 4514 start: 0,000000e+000 Unit: g Domain Unit: s
Label: R BICEPS BRACHII: Acc 1.Z Sampling frequency: 1,481481e+002 Number of points: 4514 start: 0,000000e+000 Unit: g Domain Unit: s
Label: R TRICEPS BRACHII: EMG 2 Sampling frequency: 1,925926e+003 Number of points: 58682 start: 0,000000e+000 Unit: Volts Domain Unit: s
Label: R TRICEPS BRACHII: Acc 2.X Sampling frequency: 1,481481e+002 Number of points: 4514 start: 0,000000e+000 Unit: g Domain Unit: s
Label: R TRICEPS BRACHII: Acc 2.Y Sampling frequency: 1,481481e+002 Number of points: 4514 start: 0,000000e+000 Unit: g Domain Unit: s
Label: R TRICEPS BRACHII: Acc 2.Z Sampling frequency: 1,481481e+002 Number of points: 4514 start: 0,000000e+000 Unit: g Domain Unit: s
Start Trigger Method: None
Stop Trigger Method: None
 
X[s],"R BICEPS BRACHII: EMG 1",X[s],"R BICEPS BRACHII: Acc 1.X",X[s],"R BICEPS BRACHII: Acc 1.Y",X[s],"R BICEPS BRACHII: Acc 1.Z",X[s],"R TRICEPS BRACHII: EMG 2",X[s],"R TRICEPS BRACHII: Acc 2.X",X[s],"R TRICEPS BRACHII: Acc 2.Y",X[s],"R TRICEPS BRACHII: Acc 2.Z"
0.000000,0,0.000000,0,0.000000,0,0.000000,0,0.000000,0,0.000000,0,0.000000,0,0.000000,0
0,0005192308,0,0,00675,0,0,00675,0,0,00675,0,0,0005192308,0,0,00675,0,0,00675,0,0,00675,0
0,001038462,0,0,0135,0,0,0135,0,0,0135,0,0,001038462,0,0,0135,0,0,0135,0,0,0135,0
0,001557692,0,0,02025,0,0,02025,0,0,02025,0,0,001557692,0,0,02025,0,0,02025,0,0,02025,0
0,002076923,0,0,027,-0,8540169,0,027,0,1127947,0,027,-0,4189517,0,002076923,0,0,027,-0,9869535,0,027,0,1812772,0,027,-0,2819867
0,002596154,0,0,03375,-0,8580453,0,03375,0,1087663,0,03375,-0,4149233,0,002596154,0,0,03375,-0,9829252,0,03375,0,1812772,0,03375,-0,2860151
0,003115385,0,0,0405,-0,8540169,0,0405,0,1127947,0,0405,-0,4189517,0,003115385,0,0,0405,-0,9869535,0,0405,0,1893339,0,0405,-0,2860151
0,003634615,0,0,04725,-0,8540169,0,04725,0,1087663,0,04725,-0,4189517,0,003634615,0,0,04725,-0,9788967,0,04725,0,1893339,0,04725,-0,2900435
0,004153846,0,0,054,-0,8379034,0,054,0,1127947,0,054,-0,4229801,0,004153846,0,0,054,-0,9829252,0,054,0,1973907,0,054,-0,2860151
0,004673077,0,0,06075,-0,8379034,0,06075,0,1127947,0,06075,-0,4189517,0,004673077,0,0,06075,-0,97084,0,06075,0,1853056,0,06075,-0,2981002
0,005192308,0,0,0675,-0,8379034,0,0675,0,1127947,0,0675,-0,4270085,0,005192308,0,0,0675,-0,9627832,0,0675,0,1853056,0,0675,-0,3021286
0,005711539,0,0,07425,-0,8419318,0,07425,0,1127947,0,07425,-0,4270085,0,005711539,0,0,07425,-0,9668117,0,07425,0,1853056,0,07425,-0,2940719
0,006230769,0,0,081,-0,8499885,0,081,0,1087663,0,081,-0,4310368,0,006230769,0,0,081,-0,9627832,0,081,0,1853056,0,081,-0,2981002
0,00675,0,0,08775,-0,8540169,0,08775,0,1087663,0,08775,-0,4270085,0,00675,0,0,08775,-0,9668117,0,08775,0,1893339,0,08775,-0,2981002
0,007269231,0,0,0945,-0,8580453,0,0945,0,1047379,0,0945,-0,4310368,0,007269231,0,0,0945,-0,9748684,0,0945,0,1812772,0,0945,-0,2900435
0,007788462,0,0,10125,-0,8540169,0,10125,0,1087663,0,10125,-0,4310368,0,007788462,0,0,10125,-0,9829252,0,10125,0,1812772,0,10125,-0,2900435
0,008307693,0,0,108,-0,8499885,0,108,0,1007095,0,108,-0,4270085,0,008307693,0,0,108,-0,9829252,0,108,0,1732204,0,108,-0,2900435
0,008826924,0,0,11475,-0,8419318,0,11475,0,1007095,0,11475,-0,4270085,0,008826924,0,0,11475,-0,9829252,0,11475,0,1772488,0,11475,-0,2819867
0,009346154,0,0,1215,-0,833875,0,1215,0,1007095,0,1215,-0,4229801,0,009346154,0,0,1215,-0,9869535,0,1215,0,1853056,0,1215,-0,2819867
0,009865385,0,0,12825,-0,833875,0,12825,0,1047379,0,12825,-0,4189517,0,009865385,0,0,12825,-0,9788967,0,12825,0,1893339,0,12825,-0,2779583
0,01038462,0,0,135,-0,8379034,0,135,0,1087663,0,135,-0,4229801,0,01038462,0,0,135,-0,9748684,0,135,0,1853056,0,135,-0,2779583
0,01090385,0,0,14175,-0,8459601,0,14175,0,1127947,0,14175,-0,4149233,0,01090385,0,0,14175,-0,9668117,0,14175,0,1853056,0,14175,-0,2819867
0,01142308,0,0,1485,-0,8499885,0,1485,0,1127947,0,1485,-0,4229801,0,01142308,0,0,1485,-0,9668117,0,1485,0,1812772,0,1485,-0,2900435
0,01194231,0,0,15525,-0,8580453,0,15525,0,1127947,0,15525,-0,4310368,0,01194231,0,0,15525,-0,9627832,0,15525,0,1853056,0,15525,-0,2819867
0,01246154,0,0,162,-0,866102,0,162,0,1087663,0,162,-0,4310368,0,01246154,0,0,162,-0,97084,0,162,0,1853056,0,162,-0,2860151
0,01298077,0,0,16875,-0,8741588,0,16875,0,1087663,0,16875,-0,4310368,0,01298077,0,0,16875,-0,9788967,0,16875,0,1893339,0,16875,-0,2819867
0,0135,0,0,1755,-0,8741588,0,1755,0,1007095,0,1755,-0,4390936,0,0135,0,0,1755,-0,9909819,0,1755,0,1853056,0,1755,-0,2860151
0,01401923,0,0,18225,-0,8701304,0,18225,0,1087663,0,18225,-0,4350652,0,01401923,0,0,18225,-0,9869535,0,18225,0,1933623,0,18225,-0,27393
0,01453846,0,0,189,-0,8701304,0,189,0,1087663,0,189,-0,4270085,0,01453846,0,0,189,-0,9950103,0,189,0,1933623,0,189,-0,2819867
0,01505769,0,0,19575,-0,8701304,0,19575,0,1168231,0,19575,-0,4149233,0,01505769,0,0,19575,-0,9950103,0,19575,0,1973907,0,19575,-0,2779583
0,01557692,0,0,2025,-0,8701304,0,2025,0,1208515,0,2025,-0,4149233,0,01557692,0,0,2025,-0,9950103,0,2025,0,1973907,0,2025,-0,2779583
0,01609615,0,0,20925,-0,8781872,0,20925,0,1289082,0,20925,-0,4108949,0,01609615,0,0,20925,-0,9909819,0,20925,0,1973907,0,20925,-0,2779583
0,01661539,0,0,216,-0,8741588,0,216,0,1208515,0,216,-0,4108949,0,01661539,0,0,216,-0,9950103,0,216,0,1933623,0,216,-0,2860151
0,01713462,0,0,22275,-0,8781872,0,22275,0,1329366,0,22275,-0,4270085,0,01713462,0,0,22275,-1,003067,0,22275,0,1973907,0,22275,-0,2779583
0,01765385,0,0,2295,-0,8701304,0,2295,0,1289082,0,2295,-0,4350652,0,01765385,0,0,2295,-1,003067,0,2295,0,1933623,0,2295,-0,2819867
0,01817308,0,0,23625,-0,8701304,0,23625,0,1248798,0,23625,-0,4350652,0,01817308,0,0,23625,-0,9950103,0,23625,0,1853056,0,23625,-0,2860151
0,01869231,0,0,243,-0,866102,0,243,0,1208515,0,243,-0,4310368,0,01869231,0,0,243,-1,003067,0,243,0,1812772,0,243,-0,2860151
0,01921154,0,0,24975,-0,866102,0,24975,0,1208515,0,24975,-0,4270085,0,01921154,0,0,24975,-0,9950103,0,24975,0,1812772,0,24975,-0,2819867
0,01973077,0,0,2565,-0,866102,0,2565,0,1168231,0,2565,-0,4270085,0,01973077,0,0,2565,-0,9950103,0,2565,0,1732204,0,2565,-0,2900435
0,02025,0,0,26325,-0,866102,0,26325,0,1087663,0,26325,-0,4310368,0,02025,0,0,26325,-0,9909819,0,26325,0,169192,0,26325,-0,2900435
0,02076923,0,0,27,-0,8701304,0,27,0,1047379,0,27,-0,4229801,0,02076923,0,0,27,-0,9869535,0,27,0,1732204,0,27,-0,2900435
0,02128846,0,0,27675,-0,866102,0,27675,0,1007095,0,27675,-0,4310368,0,02128846,0,0,27675,-0,9909819,0,27675,0,1651637,0,27675,-0,2900435
0,02180769,0,0,2835,-0,866102,0,2835,0,09668116,0,2835,-0,4310368,0,02180769,0,0,2835,-0,9829252,0,2835,0,1732204,0,2835,-0,2940719
0,02232692,0,0,29025,-0,866102,0,29025,0,1047379,0,29025,-0,4350652,0,02232692,0,0,29025,-0,9869535,0,29025,0,169192,0,29025,-0,2900435
0,02284615,0,0,297,-0,8580453,0,297,0,1127947,0,297,-0,4270085,0,02284615,0,0,297,-0,9829252,0,297,0,1772488,0,297,-0,2940719
0,02336538,0,0,30375,-0,8540169,0,30375,0,1208515,0,30375,-0,4310368,0,02336538,0,0,30375,-0,9748684,0,30375,0,1732204,0,30375,-0,2819867
0,02388461,0,0,3105,-0,8499885,0,3105,0,1208515,0,3105,-0,4270085,0,02388461,0,0,3105,-0,9788967,0,3105,0,169192,0,3105,-0,27393
0,02440385,0,0,31725,-0,8459601,0,31725,0,1248798,0,31725,-0,4310368,0,02440385,0,0,31725,-0,9748684,0,31725,0,1772488,0,31725,-0,2779583
0,02492308,0,0,324,-0,8419318,0,324,0,1248798,0,324,-0,4350652,0,02492308,0,0,324,-0,9748684,0,324,0,1651637,0,324,-0,2819867
0,02544231,0,0,33075,-0,8419318,0,33075,0,1289082,0,33075,-0,4350652,0,02544231,0,0,33075,-0,97084,0,33075,0,1812772,0,33075,-0,2860151
0,02596154,0,0,3375,-0,8419318,0,3375,0,1248798,0,3375,-0,4350652,0,02596154,0,0,3375,-0,9627832,0,3375,0,1772488,0,3375,-0,2860151
0,02648077,0,0,34425,-0,8419318,0,34425,0,1168231,0,34425,-0,4270085,0,02648077,0,0,34425,-0,9627832,0,34425,0,1772488,0,34425,-0,2860151
0,027,1,544213E-05,0,351,-0,8419318,0,351,0,1168231,0,351,-0,4310368,0,027,4,699778E-06,0,351,-0,9668117,0,351,0,1772488,0,351,-0,2860151
0,02751923,1,309224E-05,0,35775,-0,8499885,0,35775,0,1127947,0,35775,-0,4189517,0,02751923,4,531929E-06,0,35775,-0,97084,0,35775,0,1812772,0,35775,-0,2900435
0,02803846,1,12459E-05,0,3645,-0,8540169,0,3645,0,1047379,0,3645,-0,4229801,0,02803846,7,217517E-06,0,3645,-0,97084,0,3645,0,1853056,0,3645,-0,2860151
0,02855769,1,107805E-05,0,37125,-0,8580453,0,37125,0,1087663,0,37125,-0,4229801,0,02855769,1,007095E-05,0,37125,-0,9748684,0,37125,0,1812772,0,37125,-0,2900435
0,02907692,1,12459E-05,0,378,-0,8580453,0,378,0,1047379,0,378,-0,4189517,0,02907692,1,05745E-05,0,378,-0,9788967,0,378,0,1853056,0,378,-0,2819867
0,02959615,1,258869E-05,0,38475,-0,8620737,0,38475,0,1087663,0,38475,-0,4270085,0,02959615,9,231708E-06,0,38475,-0,9829252,0,38475,0,1893339,0,38475,-0,2860151
0,03011538,1,342794E-05,0,3915,-0,8620737,0,3915,0,1047379,0,3915,-0,4229801,0,03011538,7,217517E-06,0,3915,-0,9829252,0,3915,0,1893339,0,3915,-0,2860151
0,03063462,1,426719E-05,0,39825,-0,8620737,0,39825,0,1047379,0,39825,-0,4229801,0,03063462,5,203327E-06,0,39825,-0,9909819,0,39825,0,1933623,0,39825,-0,2860151
0,03115385,1,460288E-05,0,405,-0,866102,0,405,0,1127947,0,405,-0,4310368,0,03115385,6,881819E-06,0,405,-0,9909819,0,405,0,1973907,0,405,-0,2819867
0,03167308,1,393149E-05,0,41175,-0,866102,0,41175,0,1208515,0,41175,-0,4270085,0,03167308,1,02388E-05,0,41175,-0,9990387,0,41175,0,1933623,0,41175,-0,2819867
0,03219231,1,426719E-05,0,4185,-0,8620737,0,4185,0,1168231,0,4185,-0,4229801,0,03219231,1,141375E-05,0,4185,-0,9909819,0,4185,0,1893339,0,4185,-0,2860151
0,03271154,1,443503E-05,0,42525,-0,8620737,0,42525,0,1248798,0,42525,-0,4270085,0,03271154,1,05745E-05,0,42525,-0,9869535,0,42525,0,1853056,0,42525,-0,2940719
0,03323077,1,393149E-05,0,432,-0,8580453,0,432,0,1289082,0,432,-0,4270085,0,03323077,1,107805E-05,0,432,-0,9829252,0,432,0,1772488,0,432,-0,2900435
0,03375,1,326009E-05,0,43875,-0,8580453,0,43875,0,1248798,0,43875,-0,4229801,0,03375,9,399557E-06,0,43875,-0,9829252,0,43875,0,1732204,0,43875,-0,2860151
0,03426923,1,208515E-05,0,4455,-0,8620737,0,4455,0,1208515,0,4455,-0,4270085,0,03426923,6,210422E-06,0,4455,-0,9788967,0,4455,0,1732204,0,4455,-0,2819867
0,03478846,1,141375E-05,0,45225,-0,8580453,0,45225,0,1127947,0,45225,-0,4189517,0,03478846,5,874724E-06,0,45225,-0,9829252,0,45225,0,1651637,0,45225,-0,2860151
0,03530769,1,02388E-05,0,459,-0,8540169,0,459,0,1087663,0,459,-0,4270085,0,03530769,9,231708E-06,0,459,-0,9869535,0,459,0,169192,0,459,-0,2819867
0,03582693,9,567407E-06,0,46575,-0,8540169,0,46575,0,1127947,0,46575,-0,4270085,0,03582693,1,19173E-05,0,46575,-0,9909819,0,46575,0,1812772,0,46575,-0,2860151
0,03634615,1,05745E-05,0,4725,-0,8580453,0,4725,0,1087663,0,4725,-0,4350652,0,03634615,1,342794E-05,0,4725,-0,9909819,0,4725,0,1812772,0,4725,-0,2860151
0,03686538,1,19173E-05,0,47925,-0,8620737,0,47925,0,1127947,0,47925,-0,4310368,0,03686538,1,359579E-05,0,47925,-0,9950103,0,47925,0,1853056,0,47925,-0,2860151
0,03738461,1,19173E-05,0,486,-0,8540169,0,486,0,1127947,0,486,-0,4270085,0,03738461,1,359579E-05,0,486,-0,9909819,0,486,0,1853056,0,486,-0,2860151
0,03790385,1,15816E-05,0,49275,-0,8459601,0,49275,0,1168231,0,49275,-0,4270085,0,03790385,1,326009E-05,0,49275,-0,9869535,0,49275,0,1853056,0,49275,-0,2900435
0,03842308,1,09102E-05,0,4995,-0,8540169,0,4995,0,1168231,0,4995,-0,4270085,0,03842308,1,107805E-05,0,4995,-0,9869535,0,4995,0,1812772,0,4995,-0,2860151
0,03894231,1,12459E-05,0,50625,-0,8499885,0,50625,0,1127947,0,50625,-0,4350652,0,03894231,9,399557E-06,0,50625,-0,9909819,0,50625,0,1812772,0,50625,-0,2900435
0,03946154,1,19173E-05,0,513,-0,8540169,0,513,0,1168231,0,513,-0,4270085,0,03946154,8,728161E-06,0,513,-0,9829252,0,513,0,1732204,0,513,-0,2900435
0,03998077,1,292439E-05,0,51975,-0,8540169,0,51975,0,1127947,0,51975,-0,4310368,0,03998077,9,063859E-06,0,51975,-0,9788967,0,51975,0,1772488,0,51975,-0,2860151
0,0405,1,15816E-05,0,5265,-0,8540169,0,5265,0,1127947,0,5265,-0,4310368,0,0405,1,02388E-05,0,5265,-0,9788967,0,5265,0,1772488,0,5265,-0,2860151
0,04101923,9,735257E-06,0,53325,-0,8580453,0,53325,0,1127947,0,53325,-0,4310368,0,04101923,1,12459E-05,0,53325,-0,9788967,0,53325,0,1732204,0,53325,-0,2900435
0,04153846,1,12459E-05,0,54,-0,8580453,0,54,0,1127947,0,54,-0,4270085,0,04153846,1,05745E-05,0,54,-0,9748684,0,54,0,169192,0,54,-0,2819867
0,04205769,1,359579E-05,0,54675,-0,8540169,0,54675,0,1168231,0,54675,-0,4229801,0,04205769,9,903106E-06,0,54675,-0,9748684,0,54675,0,1732204,0,54675,-0,2779583
0,04257692,1,326009E-05,0,5535,-0,8499885,0,5535,0,1168231,0,5535,-0,4189517,0,04257692,9,063859E-06,0,5535,-0,97084,0,5535,0,169192,0,5535,-0,2860151
0,04309615,1,09102E-05,0,56025,-0,8379034,0,56025,0,1208515,0,56025,-0,4229801,0,04309615,7,385367E-06,0,56025,-0,9748684,0,56025,0,1732204,0,56025,-0,2819867
0,04361539,7,888914E-06,0,567,-0,8419318,0,567,0,1168231,0,567,-0,4270085,0,04361539,7,217517E-06,0,567,-0,9748684,0,567,0,1732204,0,567,-0,2779583
0,04413462,6,378271E-06,0,57375,-0,8379034,0,57375,0,1208515,0,57375,-0,4270085,0,04413462,8,560311E-06,0,57375,-0,97084,0,57375,0,1772488,0,57375,-0,2860151
0,04465385,7,049668E-06,0,5805,-0,8459601,0,5805,0,1248798,0,5805,-0,4229801,0,04465385,1,05745E-05,0,5805,-0,9668117,0,5805,0,1732204,0,5805,-0,2900435
0,04517308,9,567407E-06,0,58725,-0,8459601,0,58725,0,1208515,0,58725,-0,4270085,0,04517308,1,12459E-05,0,58725,-0,97084,0,58725,0,1772488,0,58725,-0,2819867
0,04569231,1,19173E-05,0,594,-0,8540169,0,594,0,1248798,0,594,-0,4310368,0,04569231,9,735257E-06,0,594,-0,9748684,0,594,0,1772488,0,594,-0,2819867
0,04621154,1,19173E-05,0,60075,-0,8620737,0,60075,0,1208515,0,60075,-0,4310368,0,04621154,7,553216E-06,0,60075,-0,9788967,0,60075,0,1772488,0,60075,-0,2860151
0,04673077,9,735257E-06,0,6075,-0,8620737,0,6075,0,1168231,0,6075,-0,4270085,0,04673077,5,874724E-06,0,6075,-0,9869535,0,6075,0,1732204,0,6075,-0,2900435
0,04725,8,224613E-06,0,61425,-0,866102,0,61425,0,1208515,0,61425,-0,4270085,0,04725,6,881819E-06,0,61425,-0,9869535,0,61425,0,1772488,0,61425,-0,2860151
0,04776923,7,553216E-06,0,621,-0,866102,0,621,0,1127947,0,621,-0,4310368,0,04776923,1,05745E-05,0,621,-0,9909819,0,621,0,1812772,0,621,-0,2819867
0,04828846,7,049668E-06,0,62775,-0,8620737,0,62775,0,1168231,0,62775,-0,4270085,0,04828846,1,242084E-05,0,62775,-0,9909819,0,62775,0,1853056,0,62775,-0,2779583
0,04880769,9,567407E-06,0,6345,-0,866102,0,6345,0,1127947,0,6345,-0,4229801,0,04880769,1,15816E-05,0,6345,-0,9909819,0,6345,0,1893339,0,6345,-0,2779583
0,04932692,1,12459E-05,0,64125,-0,8620737,0,64125,0,1127947,0,64125,-0,4149233,0,04932692,1,05745E-05,0,64125,-0,9869535,0,64125,0,1893339,0,64125,-0,27393
0,04984615,1,242084E-05,0,648,-0,8580453,0,648,0,1208515,0,648,-0,4108949,0,04984615,1,05745E-05,0,648,-0,9788967,0,648,0,1893339,0,648,-0,27393
0,05036538,1,258869E-05,0,65475,-0,8540169,0,65475,0,1168231,0,65475,-0,4068666,0,05036538,8,89601E-06,0,65475,-0,9788967,0,65475,0,1893339,0,65475,-0,2779583
0,05088462,1,15816E-05,0,6615,-0,8580453,0,6615,0,1208515,0,6615,-0,4068666,0,05088462,5,203327E-06,0,6615,-0,9748684,0,6615,0,1812772,0,6615,-0,2779583
0,05140385,1,141375E-05,0,66825,-0,8580453,0,66825,0,1208515,0,66825,-0,4149233,0,05140385,3,860533E-06,0,66825,-0,97084,0,66825,0,1812772,0,66825,-0,2779583
0,05192308,1,19173E-05,0,675,-0,8499885,0,675,0,1208515,0,675,-0,4229801,0,05192308,5,874724E-06,0,675,-0,9668117,0,675,0,1772488,0,675,-0,2779583
0,05244231,1,174945E-05,0,68175,-0,8540169,0,68175,0,1248798,0,68175,-0,4149233,0,05244231,9,567407E-06,0,68175,-0,97084,0,68175,0,1732204,0,68175,-0,2860151
0,05296154,1,12459E-05,0,6885,-0,8540169,0,6885,0,1208515,0,6885,-0,4229801,0,05296154,9,567407E-06,0,6885,-0,97084,0,6885,0,169192,0,6885,-0,2819867
0,05348077,1,05745E-05,0,69525,-0,8620737,0,69525,0,1208515,0,69525,-0,4229801,0,05348077,8,728161E-06,0,69525,-0,9788967,0,69525,0,1732204,0,69525,-0,27393
0,054,9,567407E-06,0,702,-0,8580453,0,702,0,1208515,0,702,-0,4229801,0,054,8,89601E-06,0,702,-0,9829252,0,702,0,1732204,0,702,-0,2779583
0,05451923,7,888914E-06,0,70875,-0,8620737,0,70875,0,1248798,0,70875,-0,4270085,0,05451923,8,728161E-06,0,70875,-0,9950103,0,70875,0,1812772,0,70875,-0,27393
0,05503846,5,203327E-06,0,7155,-0,8499885,0,7155,0,1208515,0,7155,-0,4270085,0,05503846,1,12459E-05,0,7155,-0,9869535,0,7155,0,1772488,0,7155,-0,2779583
0,05555769,4,196231E-06,0,72225,-0,8499885,0,72225,0,1208515,0,72225,-0,4270085,0,05555769,1,326009E-05,0,72225,-0,9869535,0,72225,0,1853056,0,72225,-0,27393
0,05607693,5,874724E-06,0,729,-0,8499885,0,729,0,1248798,0,729,-0,4229801,0,05607693,1,15816E-05,0,729,-0,9788967,0,729,0,1772488,0,729,-0,2819867
0,05659616,7,217517E-06,0,73575,-0,8540169,0,73575,0,1208515,0,73575,-0,4189517,0,05659616,9,231708E-06,0,73575,-0,9788967,0,73575,0,1812772,0,73575,-0,2779583
0,05711538,1,007095E-05,0,7425,-0,8540169,0,7425,0,1168231,0,7425,-0,4189517,0,05711538,1,007095E-05,0,7425,-0,9748684,0,7425,0,1732204,0,7425,-0,2860151
0,05763461,1,19173E-05,0,74925,-0,8540169,0,74925,0,1208515,0,74925,-0,4189517,0,05763461,1,107805E-05,0,74925,-0,97084,0,74925,0,1812772,0,74925,-0,2860151
0,05815385,1,19173E-05,0,756,-0,8540169,0,756,0,1127947,0,756,-0,4270085,0,05815385,8,89601E-06,0,756,-0,9788967,0,756,0,169192,0,756,-0,2940719
0,05867308,1,05745E-05,0,76275,-0,8499885,0,76275,0,1168231,0,76275,-0,4310368,0,05867308,8,224613E-06,0,76275,-0,97084,0,76275,0,1772488,0,76275,-0,2860151
0,05919231,9,903106E-06,0,7695,-0,8419318,0,7695,0,1087663,0,7695,-0,4229801,0,05919231,9,735257E-06,0,7695,-0,97084,0,7695,0,1651637,0,7695,-0,2940719
0,05971154,9,903106E-06,0,77625,-0,8419318,0,77625,0,1127947,0,77625,-0,4229801,0,05971154,8,89601E-06,0,77625,-0,97084,0,77625,0,1732204,0,77625,-0,2860151
0,06023077,1,12459E-05,0,783,-0,8459601,0,783,0,1127947,0,783,-0,4189517,0,06023077,7,888914E-06,0,783,-0,9788967,0,783,0,1772488,0,783,-0,2819867
0,06075,1,19173E-05,0,78975,-0,8459601,0,78975,0,1127947,0,78975,-0,4189517,0,06075,7,888914E-06,0,78975,-0,9748684,0,78975,0,1812772,0,78975,-0,2860151
0,06126923,1,05745E-05,0,7965,-0,8379034,0,7965,0,1168231,0,7965,-0,4189517,0,06126923,7,553216E-06,0,7965,-0,97084,0,7965,0,1812772,0,7965,-0,2860151
0,06178846,8,560311E-06,0,80325,-0,8419318,0,80325,0,1208515,0,80325,-0,4149233,0,06178846,7,888914E-06,0,80325,-0,97084,0,80325,0,1853056,0,80325,-0,2819867
0,06230769,8,392462E-06,0,81,-0,8459601,0,81,0,1248798,0,81,-0,4149233,0,06230769,9,231708E-06,0,81,-0,97084,0,81,0,1893339,0,81,-0,2779583
0,06282692,1,141375E-05,0,81675,-0,8580453,0,81675,0,1289082,0,81675,-0,4189517,0,06282692,9,567407E-06,0,81675,-0,9788967,0,81675,0,1893339,0,81675,-0,2779583
0,06334615,1,326009E-05,0,8235,-0,8580453,0,8235,0,1208515,0,8235,-0,4189517,0,06334615,6,881819E-06,0,8235,-0,9829252,0,8235,0,1893339,0,8235,-0,2699016
0,06386539,1,326009E-05,0,83025,-0,8620737,0,83025,0,1168231,0,83025,-0,4189517,0,06386539,3,860533E-06,0,83025,-0,9909819,0,83025,0,1812772,0,83025,-0,2699016
0,06438462,1,326009E-05,0,837,-0,8701304,0,837,0,1168231,0,837,-0,4149233,0,06438462,3,860533E-06,0,837,-0,9909819,0,837,0,1853056,0,837,-0,2658732
0,06490385,1,393149E-05,0,84375,-0,866102,0,84375,0,1127947,0,84375,-0,4108949,0,06490385,6,54612E-06,0,84375,-0,9869535,0,84375,0,1853056,0,84375,-0,2699016
0,06542308,1,527428E-05,0,8505,-0,8580453,0,8505,0,1087663,0,8505,-0,4108949,0,06542308,8,392462E-06,0,8505,-0,9909819,0,8505,0,1853056,0,8505,-0,2699016
0,06594231,1,577783E-05,0,85725,-0,8499885,0,85725,0,1087663,0,85725,-0,4108949,0,06594231,5,539025E-06,0,85725,-0,9869535,0,85725,0,1812772,0,85725,-0,2699016
0,06646154,1,309224E-05,0,864,-0,8540169,0,864,0,1127947,0,864,-0,4068666,0,06646154,2,517739E-06,0,864,-0,9869535,0,864,0,1772488,0,864,-0,2658732
0,06698077,1,15816E-05,0,87075,-0,8459601,0,87075,0,1168231,0,87075,-0,4108949,0,06698077,5,203327E-06,0,87075,-0,9748684,0,87075,0,1812772,0,87075,-0,27393
0,0675,1,376364E-05,0,8775,-0,8620737,0,8775,0,1168231,0,8775,-0,4149233,0,0675,7,888914E-06,0,8775,-0,9829252,0,8775,0,1772488,0,8775,-0,2819867
0,06801923,1,493858E-05,0,88425,-0,866102,0,88425,0,1168231,0,88425,-0,4270085,0,06801923,5,203327E-06,0,88425,-0,9829252,0,88425,0,1853056,0,88425,-0,2819867
0,06853846,1,225299E-05,0,891,-0,866102,0,891,0,1248798,0,891,-0,4229801,0,06853846,3,189135E-06,0,891,-0,9909819,0,891,0,1853056,0,891,-0,2860151
0,0690577,9,399557E-06,0,89775,-0,8620737,0,89775,0,1208515,0,89775,-0,4310368,0,0690577,6,378271E-06,0,89775,-0,9869535,0,89775,0,1812772,0,89775,-0,2860151
0,06957693,8,392462E-06,0,9045,-0,8620737,0,9045,0,1208515,0,9045,-0,4270085,0,06957693,9,399557E-06,0,9045,-0,9909819,0,9045,0,1772488,0,9045,-0,2819867
0,07009616,9,903106E-06,0,91125,-0,8580453,0,91125,0,1248798,0,91125,-0,4229801,0,07009616,1,02388E-05,0,91125,-0,9990387,0,91125,0,1853056,0,91125,-0,2819867
0,07061539,9,063859E-06,0,918,-0,8580453,0,918,0,1248798,0,918,-0,4229801,0,07061539,9,399557E-06,0,918,-0,9950103,0,918,0,1732204,0,918,-0,27393
0,07113462,9,399557E-06,0,92475,-0,8540169,0,92475,0,1289082,0,92475,-0,4189517,0,07113462,9,231708E-06,0,92475,-0,9909819,0,92475,0,1812772,0,92475,-0,2618448
0,07165385,1,107805E-05,0,9315,-0,8580453,0,9315,0,1289082,0,9315,-0,4229801,0,07165385,9,567407E-06,0,9315,-0,9909819,0,9315,0,1732204,0,9315,-0,27393
0,07217308,1,05745E-05,0,93825,-0,8580453,0,93825,0,1248798,0,93825,-0,4149233,0,07217308,1,09102E-05,0,93825,-0,9869535,0,93825,0,1812772,0,93825,-0,2578164
0,0726923,1,007095E-05,0,945,-0,8620737,0,945,0,1289082,0,945,-0,4149233,0,0726923,1,09102E-05,0,945,-0,9829252,0,945,0,1772488,0,945,-0,2699016
0,07321154,9,231708E-06,0,95175,-0,8580453,0,95175,0,1248798,0,95175,-0,4149233,0,07321154,9,231708E-06,0,95175,-0,9829252,0,95175,0,1772488,0,95175,-0,2658732
0,07373077,9,231708E-06,0,9585,-0,8540169,0,9585,0,1248798,0,9585,-0,4189517,0,07373077,8,89601E-06,0,9585,-0,9788967,0,9585,0,1812772,0,9585,-0,27393
0,07425,9,567407E-06,0,96525,-0,8459601,0,96525,0,1289082,0,96525,-0,4229801,0,07425,9,231708E-06,0,96525,-0,97084,0,96525,0,1772488,0,96525,-0,2699016
0,07476923,9,231708E-06,0,972,-0,8419318,0,972,0,1289082,0,972,-0,4270085,0,07476923,1,02388E-05,0,972,-0,97084,0,972,0,169192,0,972,-0,2779583
0,07528846,9,063859E-06,0,97875,-0,8419318,0,97875,0,1248798,0,97875,-0,4270085,0,07528846,1,05745E-05,0,97875,-0,9668117,0,97875,0,1651637,0,97875,-0,2819867
0,07580769,1,007095E-05,0,9855,-0,8459601,0,9855,0,1248798,0,9855,-0,4270085,0,07580769,9,231708E-06,0,9855,-0,97084,0,9855,0,1732204,0,9855,-0,2819867
0,07632692,1,174945E-05,0,99225,-0,8459601,0,99225,0,1208515,0,99225,-0,4310368,0,07632692,5,874724E-06,0,99225,-0,97084,0,99225,0,1772488,0,99225,-0,2819867
0,07684615,1,393149E-05,0,999,-0,8499885,0,999,0,1208515,0,999,-0,4310368,0,07684615,4,531929E-06,0,999,-0,9627832,0,999,0,1732204,0,999,-0,2860151
0,07736538,1,460288E-05,1,00575,-0,8499885,1,00575,0,1127947,1,00575,-0,4270085,0,07736538,2,349889E-06,1,00575,-0,97084,1,00575,0,1732204,1,00575,-0,2819867
0,07788461,1,426719E-05,1,0125,-0,8499885,1,0125,0,1127947,1,0125,-0,4189517,0,07788461,1,678492E-07,1,0125,-0,9748684,1,0125,0,1812772,1,0125,-0,2900435
0,07840385,1,393149E-05,1,01925,-0,8580453,1,01925,0,1127947,1,01925,-0,4149233,0,07840385,2,349889E-06,1,01925,-0,9788967,1,01925,0,1893339,1,01925,-0,2819867
0,07892308,1,393149E-05,1,026,-0,8580453,1,026,0,1087663,1,026,-0,4189517,0,07892308,3,692683E-06,1,026,-0,9829252,1,026,0,1893339,1,026,-0,2819867
0,07944231,1,393149E-05,1,03275,-0,866102,1,03275,0,1007095,1,03275,-0,4189517,0,07944231,4,196231E-06,1,03275,-0,9909819,1,03275,0,1853056,1,03275,-0,2779583
0,07996154,1,326009E-05,1,0395,-0,866102,1,0395,0,1047379,1,0395,-0,4149233,0,07996154,4,531929E-06,1,0395,-0,9909819,1,0395,0,1853056,1,0395,-0,2819867
0,08048077,1,19173E-05,1,04625,-0,866102,1,04625,0,1047379,1,04625,-0,4189517,0,08048077,5,203327E-06,1,04625,-0,9909819,1,04625,0,1812772,1,04625,-0,2819867
0,081,1,09102E-05,1,053,-0,866102,1,053,0,1087663,1,053,-0,4229801,0,081,7,217517E-06,1,053,-0,9909819,1,053,0,1853056,1,053,-0,2779583
0,08151923,1,007095E-05,1,05975,-0,8620737,1,05975,0,1168231,1,05975,-0,4229801,0,08151923,8,89601E-06,1,05975,-0,9909819,1,05975,0,1853056,1,05975,-0,2819867
0,08203846,9,903106E-06,1,0665,-0,8580453,1,0665,0,1127947,1,0665,-0,4189517,0,08203846,8,392462E-06,1,0665,-0,9788967,1,0665,0,1853056,1,0665,-0,2819867
0,08255769,1,141375E-05,1,07325,-0,8499885,1,07325,0,1168231,1,07325,-0,4189517,0,08255769,8,392462E-06,1,07325,-0,9788967,1,07325,0,1772488,1,07325,-0,2779583
0,08307692,1,225299E-05,1,08,-0,8459601,1,08,0,1248798,1,08,-0,4189517,0,08307692,9,231708E-06,1,08,-0,97084,1,08,0,1772488,1,08,-0,2860151
0,08359616,1,15816E-05,1,08675,-0,8419318,1,08675,0,1289082,1,08675,-0,4189517,0,08359616,1,040665E-05,1,08675,-0,9668117,1,08675,0,1812772,1,08675,-0,2819867
0,08411539,1,141375E-05,1,0935,-0,8459601,1,0935,0,1248798,1,0935,-0,4189517,0,08411539,9,903106E-06,1,0935,-0,97084,1,0935,0,1772488,1,0935,-0,2860151
0,08463462,1,19173E-05,1,10025,-0,8499885,1,10025,0,1248798,1,10025,-0,4189517,0,08463462,9,567407E-06,1,10025,-0,97084,1,10025,0,1772488,1,10025,-0,27393
0,08515385,1,292439E-05,1,107,-0,8540169,1,107,0,1208515,1,107,-0,4189517,0,08515385,9,735257E-06,1,107,-0,97084,1,107,0,1812772,1,107,-0,27393
0,08567308,1,19173E-05,1,11375,-0,8540169,1,11375,0,1208515,1,11375,-0,4229801,0,08567308,1,208515E-05,1,11375,-0,97084,1,11375,0,1772488,1,11375,-0,27393
0,08619231,1,225299E-05,1,1205,-0,8580453,1,1205,0,1248798,1,1205,-0,4270085,0,08619231,1,225299E-05,1,1205,-0,9788967,1,1205,0,1812772,1,1205,-0,2779583
0,08671154,1,426719E-05,1,12725,-0,8459601,1,12725,0,1168231,1,12725,-0,4229801,0,08671154,8,89601E-06,1,12725,-0,9869535,1,12725,0,1732204,1,12725,-0,2779583
0,08723077,1,560998E-05,1,134,-0,8499885,1,134,0,1127947,1,134,-0,4270085,0,08723077,9,567407E-06,1,134,-0,9788967,1,134,0,1772488,1,134,-0,27393
0,08775,1,426719E-05,1,14075,-0,8499885,1,14075,0,1127947,1,14075,-0,4229801,0,08775,1,19173E-05,1,14075,-0,9748684,1,14075,0,1772488,1,14075,-0,27393
0,08826923,1,12459E-05,1,1475,-0,8580453,1,1475,0,1168231,1,1475,-0,4270085,0,08826923,1,05745E-05,1,1475,-0,9748684,1,1475,0,1812772,1,1475,-0,2819867
0,08878846,7,888914E-06,1,15425,-0,8580453,1,15425,0,1168231,1,15425,-0,4270085,0,08878846,1,09102E-05,1,15425,-0,9788967,1,15425,0,1812772,1,15425,-0,2819867
0,0893077,6,210422E-06,1,161,-0,8580453,1,161,0,1168231,1,161,-0,4270085,0,0893077,1,05745E-05,1,161,-0,9788967,1,161,0,1853056,1,161,-0,2819867
0,08982693,6,378271E-06,1,16775,-0,8499885,1,16775,0,1127947,1,16775,-0,4189517,0,08982693,8,560311E-06,1,16775,-0,9829252,1,16775,0,1772488,1,16775,-0,2779583
0,09034616,7,385367E-06,1,1745,-0,8580453,1,1745,0,1168231,1,1745,-0,4189517,0,09034616,7,217517E-06,1,1745,-0,9788967,1,1745,0,1812772,1,1745,-0,2860151
0,09086539,8,89601E-06,1,18125,-0,8499885,1,18125,0,1087663,1,18125,-0,4149233,0,09086539,7,049668E-06,1,18125,-0,97084,1,18125,0,1772488,1,18125,-0,2819867
0,09138462,9,903106E-06,1,188,-0,8540169,1,188,0,1127947,1,188,-0,4149233,0,09138462,9,399557E-06,1,188,-0,9788967,1,188,0,1853056,1,188,-0,2860151
0,09190385,1,040665E-05,1,19475,-0,8540169,1,19475,0,1087663,1,19475,-0,4149233,0,09190385,1,09102E-05,1,19475,-0,97084,1,19475,0,1812772,1,19475,-0,2779583
0,09242308,1,09102E-05,1,2015,-0,8540169,1,2015,0,1127947,1,2015,-0,4149233,0,09242308,1,02388E-05,1,2015,-0,9748684,1,2015,0,1772488,1,2015,-0,2860151
0,09294231,1,225299E-05,1,20825,-0,8540169,1,20825,0,1127947,1,20825,-0,4189517,0,09294231,1,007095E-05,1,20825,-0,9748684,1,20825,0,1893339,1,20825,-0,2819867
0,09346154,1,275654E-05,1,215,-0,8540169,1,215,0,1087663,1,215,-0,4189517,0,09346154,1,05745E-05,1,215,-0,9788967,1,215,0,1853056,1,215,-0,2779583
0,09398077,1,141375E-05,1,22175,-0,8540169,1,22175,0,1047379,1,22175,-0,4189517,0,09398077,1,05745E-05,1,22175,-0,9829252,1,22175,0,1812772,1,22175,-0,2779583
0,0945,1,12459E-05,1,2285,-0,8540169,1,2285,0,1087663,1,2285,-0,4189517,0,0945,1,040665E-05,1,2285,-0,9829252,1,2285,0,1853056,1,2285,-0,27393
0,09501923,1,19173E-05,1,23525,-0,8580453,1,23525,0,1127947,1,23525,-0,4189517,0,09501923,9,567407E-06,1,23525,-0,9829252,1,23525,0,1893339,1,23525,-0,27393
0,09553846,1,15816E-05,1,242,-0,8540169,1,242,0,1127947,1,242,-0,4189517,0,09553846,9,903106E-06,1,242,-0,9829252,1,242,0,1893339,1,242,-0,2699016
0,09605769,9,735257E-06,1,24875,-0,8620737,1,24875,0,1208515,1,24875,-0,4149233,0,09605769,1,225299E-05,1,24875,-0,9829252,1,24875,0,1853056,1,24875,-0,2699016
0,09657692,8,392462E-06,1,2555,-0,8620737,1,2555,0,1168231,1,2555,-0,4149233,0,09657692,1,208515E-05,1,2555,-0,9829252,1,2555,0,1812772,1,2555,-0,27393
0,09709615,8,89601E-06,1,26225,-0,8620737,1,26225,0,1168231,1,26225,-0,4149233,0,09709615,9,567407E-06,1,26225,-0,9909819,1,26225,0,1893339,1,26225,-0,2779583
0,09761538,1,007095E-05,1,269,-0,8620737,1,269,0,1127947,1,269,-0,4189517,0,09761538,7,217517E-06,1,269,-0,9829252,1,269,0,1893339,1,269,-0,27393
0,09813461,1,12459E-05,1,27575,-0,8580453,1,27575,0,1127947,1,27575,-0,4189517,0,09813461,7,888914E-06,1,27575,-0,9829252,1,27575,0,1853056,1,27575,-0,2819867
0,09865385,1,174945E-05,1,2825,-0,8580453,1,2825,0,1168231,1,2825,-0,4229801,0,09865385,9,231708E-06,1,2825,-0,9869535,1,2825,0,1812772,1,2825,-0,2779583
0,09917308,9,567407E-06,1,28925,-0,8580453,1,28925,0,1127947,1,28925,-0,4229801,0,09917308,1,02388E-05,1,28925,-0,9829252,1,28925,0,1853056,1,28925,-0,2779583
0,09969231,7,888914E-06,1,296,-0,8580453,1,296,0,1127947,1,296,-0,4149233,0,09969231,1,09102E-05,1,296,-0,9788967,1,296,0,1812772,1,296,-0,2819867
0,1002115,9,567407E-06,1,30275,-0,8540169,1,30275,0,1168231,1,30275,-0,4108949,0,1002115,1,02388E-05,1,30275,-0,9788967,1,30275,0,1772488,1,30275,-0,2860151
0,1007308,1,12459E-05,1,3095,-0,8580453,1,3095,0,1127947,1,3095,-0,4189517,0,1007308,1,02388E-05,1,3095,-0,9788967,1,3095,0,1772488,1,3095,-0,2819867
0,10125,1,040665E-05,1,31625,-0,8580453,1,31625,0,1208515,1,31625,-0,4149233,0,10125,9,903106E-06,1,31625,-0,9788967,1,31625,0,1732204,1,31625,-0,2779583
0,1017692,1,05745E-05,1,323,-0,866102,1,323,0,1208515,1,323,-0,4108949,0,1017692,9,231708E-06,1,323,-0,9788967,1,323,0,169192,1,323,-0,27393
0,1022885,1,292439E-05,1,32975,-0,866102,1,32975,0,1248798,1,32975,-0,3947814,0,1022885,8,89601E-06,1,32975,-0,9788967,1,32975,0,169192,1,32975,-0,27393
0,1028077,1,426719E-05,1,3365,-0,8620737,1,3365,0,1248798,1,3365,-0,3826963,0,1028077,8,224613E-06,1,3365,-0,9788967,1,3365,0,1651637,1,3365,-0,2819867
0,1033269,1,460288E-05,1,34325,-0,8499885,1,34325,0,1289082,1,34325,-0,3786679,0,1033269,6,210422E-06,1,34325,-0,9748684,1,34325,0,169192,1,34325,-0,27393
0,1038462,1,326009E-05,1,35,-0,8459601,1,35,0,1450217,1,35,-0,4229801,0,1038462,6,54612E-06,1,35,-0,9788967,1,35,0,1651637,1,35,-0,2819867
0,1043654,1,225299E-05,1,35675,-0,8459601,1,35675,0,169192,1,35675,-0,4753491,0,1043654,8,392462E-06,1,35675,-0,9627832,1,35675,0,1571069,1,35675,-0,2900435
0,1048846,1,326009E-05,1,3635,-0,8741588,1,3635,0,2014191,1,3635,-0,5075761,0,1048846,7,553216E-06,1,3635,-0,9547265,1,3635,0,1651637,1,3635,-0,2900435
0,1054038,1,225299E-05,1,37025,-0,9023575,1,37025,0,2417029,1,37025,-0,5035477,0,1054038,6,210422E-06,1,37025,-0,9426414,1,37025,0,169192,1,37025,-0,2779583
0,1059231,1,09102E-05,1,377,-0,9224994,1,377,0,2699016,1,377,-0,4753491,0,1059231,4,699778E-06,1,377,-0,9345846,1,377,0,1973907,1,377,-0,2699016
0,1064423,1,141375E-05,1,38375,-0,9506981,1,38375,0,2699016,1,38375,-0,4350652,0,1064423,4,867628E-06,1,38375,-0,9386129,1,38375,0,2255894,1,38375,-0,2658732
0,1069615,1,326009E-05,1,3905,-0,9506981,1,3905,0,2255894,1,3905,-0,3867247,0,1069615,5,874724E-06,1,3905,-0,9506981,1,3905,0,2497597,1,3905,-0,27393
0,1074808,1,477073E-05,1,39725,-0,9104142,1,39725,0,1490501,1,39725,-0,3343557,0,1074808,4,867628E-06,1,39725,-0,9547265,1,39725,0,2537881,1,39725,-0,2779583
0,108,1,393149E-05,1,404,-0,8499885,1,404,0,07251087,1,404,-0,2900435,0,108,3,021286E-06,1,404,-0,9466697,1,404,0,2417029,1,404,-0,2779583
0,1085192,1,19173E-05,1,41075,-0,7694209,1,41075,0,04834058,1,41075,-0,2819867,0,1085192,2,349889E-06,1,41075,-0,9184711,1,41075,0,2135042,1,41075,-0,2658732
0,1090385,1,02388E-05,1,4175,-0,7049668,1,4175,0,08056764,1,4175,-0,3021286,0,1090385,3,860533E-06,1,4175,-0,8822156,1,4175,0,1772488,1,4175,-0,2618448
0,1095577,8,224613E-06,1,42425,-0,6606546,1,42425,0,1409934,1,42425,-0,3544976,0,1095577,6,042573E-06,1,42425,-0,8540169,1,42425,0,1571069,1,42425,-0,2417029
0,1100769,7,217517E-06,1,431,-0,6485695,1,431,0,2135042,1,431,-0,390753,0,1100769,6,881819E-06,1,431,-0,8499885,1,431,0,1409934,1,431,-0,2376745
0,1105962,8,560311E-06,1,43775,-0,6606546,1,43775,0,2497597,1,43775,-0,4149233,0,1105962,7,049668E-06,1,43775,-0,8701304,1,43775,0,136965,1,43775,-0,2135042
0,1111154,1,107805E-05,1,4445,-0,7170519,1,4445,0,3101854,1,4445,-0,4189517,0,1111154,7,721065E-06,1,4445,-0,9184711,1,4445,0,136965,1,4445,-0,1853056
0,1116346,1,292439E-05,1,45125,-0,7774777,1,45125,0,3424124,1,45125,-0,4028382,0,1116346,9,735257E-06,1,45125,-0,9587549,1,45125,0,1409934,1,45125,-0,1611353
0,1121539,1,242084E-05,1,458,-0,8258182,1,458,0,3464408,1,458,-0,3786679,0,1121539,9,903106E-06,1,458,-0,9990387,1,458,0,1329366,1,458,-0,1611353
0,1126731,1,12459E-05,1,46475,-0,8540169,1,46475,0,3142138,1,46475,-0,3424124,0,1126731,1,107805E-05,1,46475,-1,039322,1,46475,0,1289082,1,46475,-0,1651637
0,1131923,1,05745E-05,1,4715,-0,866102,1,4715,0,2497597,1,4715,-0,3303273,0,1131923,1,258869E-05,1,4715,-1,067521,1,4715,0,1289082,1,4715,-0,1933623
0,1137115,1,225299E-05,1,47825,-0,8701304,1,47825,0,1450217,1,47825,-0,3424124,0,1137115,1,309224E-05,1,47825,-1,107805,1,47825,0,1289082,1,47825,-0,2135042
0,1142308,1,359579E-05,1,485,-0,8741588,1,485,0,02819867,1,485,-0,390753,0,1142308,1,174945E-05,1,485,-1,140032,1,485,0,1289082,1,485,-0,2417029
0,11475,1,376364E-05,1,49175,-0,8741588,1,49175,-0,06848249,1,49175,-0,4350652,0,11475,1,05745E-05,1,49175,-1,152117,1,49175,0,1289082,1,49175,-0,2497597
0,1152692,1,359579E-05,1,4985,-0,8741588,1,4985,-0,136965,1,4985,-0,4511787,0,1152692,9,399557E-06,1,4985,-1,131975,1,4985,0,1289082,1,4985,-0,2658732
0,1157885,1,05745E-05,1,50525,-0,866102,1,50525,-0,1490501,1,50525,-0,4390936,0,1157885,8,224613E-06,1,50525,-1,079606,1,50525,0,1208515,1,50525,-0,2779583
0,1163077,7,888914E-06,1,512,-0,866102,1,512,-0,1127947,1,512,-0,4068666,0,1163077,7,553216E-06,1,512,-1,027237,1,512,0,1168231,1,512,-0,2900435
0,1168269,8,728161E-06,1,51875,-0,866102,1,51875,-0,05236896,1,51875,-0,3826963,0,1168269,4,531929E-06,1,51875,-0,97084,1,51875,0,1127947,1,51875,-0,3142138
0,1173462,1,02388E-05,1,5255,-0,8741588,1,5255,0,02014191,1,5255,-0,3706111,0,1173462,3,189135E-06,1,5255,-0,9305562,1,5255,0,1208515,1,5255,-0,3544976
0,1178654,1,05745E-05,1,53225,-0,8822156,1,53225,0,08459602,1,53225,-0,3786679,0,1178654,4,531929E-06,1,53225,-0,9104142,1,53225,0,1530785,1,53225,-0,3826963
0,1183846,1,007095E-05,1,539,-0,8822156,1,539,0,1248798,1,539,-0,390753,0,1183846,7,217517E-06,1,539,-0,9144427,1,539,0,1973907,1,539,-0,3988098
0,1189038,9,399557E-06,1,54575,-0,8701304,1,54575,0,1611353,1,54575,-0,390753,0,1189038,9,567407E-06,1,54575,-0,9265279,1,54575,0,2376745,1,54575,-0,4028382
0,1194231,9,903106E-06,1,5525,-0,8540169,1,5525,0,1893339,1,5525,-0,3786679,0,1194231,1,05745E-05,1,5525,-0,9265279,1,5525,0,2779583,1,5525,-0,3826963
0,1199423,1,05745E-05,1,55925,-0,8217899,1,55925,0,2175326,1,55925,-0,3786679,0,1199423,9,903106E-06,1,55925,-0,9345846,1,55925,0,3021286,1,55925,-0,3464408
0,1204615,1,007095E-05,1,566,-0,8056763,1,566,0,2497597,1,566,-0,3867247,0,1204615,9,063859E-06,1,566,-0,9466697,1,566,0,3142138,1,566,-0,2981002
0,1209808,1,007095E-05,1,57275,-0,801648,1,57275,0,2779583,1,57275,-0,3947814,0,1209808,7,888914E-06,1,57275,-0,9627832,1,57275,0,306157,1,57275,-0,2578164
0,1215,1,19173E-05,1,5795,-0,8137331,1,5795,0,2860151,1,5795,-0,4028382,0,1215,9,903106E-06,1,5795,-0,9788967,1,5795,0,2900435,1,5795,-0,2336462
0,1220192,1,225299E-05,1,58625,-0,833875,1,58625,0,2779583,1,58625,-0,4149233,0,1220192,1,258869E-05,1,58625,-1,003067,1,58625,0,27393,1,58625,-0,221561
0,1225385,1,174945E-05,1,593,-0,8580453,1,593,0,2578164,1,593,-0,4310368,0,1225385,1,258869E-05,1,593,-1,011124,1,593,0,2497597,1,593,-0,2094758
0,1230577,1,15816E-05,1,59975,-0,8620737,1,59975,0,2497597,1,59975,-0,443122,0,1230577,1,15816E-05,1,59975,-1,027237,1,59975,0,2175326,1,59975,-0,2054475
0,1235769,1,15816E-05,1,6065,-0,8701304,1,6065,0,2255894,1,6065,-0,4471503,0,1235769,1,12459E-05,1,6065,-1,019181,1,6065,0,1651637,1,6065,-0,2175326
0,1240962,1,15816E-05,1,61325,-0,866102,1,61325,0,221561,1,61325,-0,4270085,0,1240962,1,007095E-05,1,61325,-1,007095,1,61325,0,1168231,1,61325,-0,2296178
0,1246154,1,19173E-05,1,62,-0,8580453,1,62,0,2054475,1,62,-0,3988098,0,1246154,1,09102E-05,1,62,-1,007095,1,62,0,06042573,1,62,-0,2497597
0,1251346,1,275654E-05,1,62675,-0,866102,1,62675,0,1933623,1,62675,-0,3867247,0,1251346,1,05745E-05,1,62675,-1,003067,1,62675,0,02417029,1,62675,-0,2618448
0,1256538,1,326009E-05,1,6335,-0,8701304,1,6335,0,1772488,1,6335,-0,390753,0,1256538,7,217517E-06,1,6335,-1,015152,1,6335,-0,01611353,1,6335,-0,27393
0,1261731,1,107805E-05,1,64025,-0,8822156,1,64025,0,1571069,1,64025,-0,3826963,0,1261731,5,874724E-06,1,64025,-1,031266,1,64025,-0,02819867,1,64025,-0,2779583
0,1266923,1,02388E-05,1,647,-0,8862439,1,647,0,1329366,1,647,-0,3826963,0,1266923,6,210422E-06,1,647,-1,043351,1,647,-0,03222705,1,647,-0,27393
0,1272115,1,007095E-05,1,65375,-0,8822156,1,65375,0,1007095,1,65375,-0,3786679,0,1272115,8,056764E-06,1,65375,-1,055436,1,65375,-0,02014191,1,65375,-0,2819867
0,1277308,7,217517E-06,1,6605,-0,866102,1,6605,0,0886244,1,6605,-0,3867247,0,1277308,7,721065E-06,1,6605,-1,059464,1,6605,0,1,6605,-0,2819867
0,12825,6,042573E-06,1,66725,-0,8459601,1,66725,0,06848249,1,66725,-0,3988098,0,12825,8,560311E-06,1,66725,-1,063493,1,66725,0,03222705,1,66725,-0,2779583
0,1287692,1,02388E-05,1,674,-0,8258182,1,674,0,06848249,1,674,-0,4108949,0,1287692,1,02388E-05,1,674,-1,051408,1,674,0,06445411,1,674,-0,2779583
0,1292885,1,292439E-05,1,68075,-0,8137331,1,68075,0,08056764,1,68075,-0,4149233,0,1292885,8,224613E-06,1,68075,-1,039322,1,68075,0,09265278,1,68075,-0,2779583
0,1298077,1,19173E-05,1,6875,-0,8177615,1,6875,0,0886244,1,6875,-0,4189517,0,1298077,6,042573E-06,1,6875,-1,019181,1,6875,0,1289082,1,6875,-0,2819867
0,1303269,1,19173E-05,1,69425,-0,8258182,1,69425,0,1168231,1,69425,-0,4149233,0,1303269,7,217517E-06,1,69425,-0,9909819,1,69425,0,1732204,1,69425,-0,2900435
0,1308462,1,242084E-05,1,701,-0,8499885,1,701,0,1329366,1,701,-0,4108949,0,1308462,8,392462E-06,1,701,-0,97084,1,701,0,2054475,1,701,-0,3021286
0,1313654,1,258869E-05,1,70775,-0,8741588,1,70775,0,1450217,1,70775,-0,4028382,0,1313654,7,385367E-06,1,70775,-0,9627832,1,70775,0,2376745,1,70775,-0,3142138
0,1318846,1,309224E-05,1,7145,-0,8943007,1,7145,0,1611353,1,7145,-0,4068666,0,1318846,7,217517E-06,1,7145,-0,9587549,1,7145,0,2658732,1,7145,-0,3383841
0,1324039,1,409934E-05,1,72125,-0,9063858,1,72125,0,1611353,1,72125,-0,3988098,0,1324039,1,02388E-05,1,72125,-0,9627832,1,72125,0,2819867,1,72125,-0,3424124
0,1329231,1,409934E-05,1,728,-0,9144427,1,728,0,1490501,1,728,-0,4028382,0,1329231,1,09102E-05,1,728,-0,9547265,1,728,0,306157,1,728,-0,3544976
0,1334423,1,493858E-05,1,73475,-0,9063858,1,73475,0,1168231,1,73475,-0,4028382,0,1334423,7,721065E-06,1,73475,-0,9547265,1,73475,0,3222705,1,73475,-0,3625543
0,1339615,1,443503E-05,1,7415,-0,8862439,1,7415,0,09265278,1,7415,-0,4149233,0,1339615,4,36408E-06,1,7415,-0,9506981,1,7415,0,3343557,1,7415,-0,3706111
0,1344808,1,426719E-05,1,74825,-0,8580453,1,74825,0,08459602,1,74825,-0,4028382,0,1344808,3,524834E-06,1,74825,-0,9305562,1,74825,0,3464408,1,74825,-0,3746395
0,135,1,309224E-05,1,755,-0,8298466,1,755,0,1087663,1,755,-0,3988098,0,135,4,699778E-06,1,755,-0,9144427,1,755,0,3303273,1,755,-0,3826963
0,1355192,1,19173E-05,1,76175,-0,8137331,1,76175,0,1772488,1,76175,-0,390753,0,1355192,6,54612E-06,1,76175,-0,9023575,1,76175,0,3262989,1,76175,-0,3746395
0,1360385,1,242084E-05,1,7685,-0,8056763,1,7685,0,2376745,1,7685,-0,4028382,0,1360385,6,378271E-06,1,7685,-0,9104142,1,7685,0,2981002,1,7685,-0,3746395
0,1365577,1,19173E-05,1,77525,-0,8097047,1,77525,0,2618448,1,77525,-0,4149233,0,1365577,8,89601E-06,1,77525,-0,9144427,1,77525,0,2819867,1,77525,-0,3544976
0,1370769,9,063859E-06,1,782,-0,8217899,1,782,0,2497597,1,782,-0,4310368,0,1370769,1,292439E-05,1,782,-0,9426414,1,782,0,2699016,1,782,-0,3464408
0,1375962,8,392462E-06,1,78875,-0,8298466,1,78875,0,2094758,1,78875,-0,4390936,0,1375962,1,15816E-05,1,78875,-0,9627832,1,78875,0,2497597,1,78875,-0,3222705
0,1381154,9,903106E-06,1,7955,-0,8419318,1,7955,0,169192,1,7955,-0,4511787,0,1381154,9,063859E-06,1,7955,-0,9788967,1,7955,0,2175326,1,7955,-0,2900435
0,1386346,1,107805E-05,1,80225,-0,8540169,1,80225,0,136965,1,80225,-0,4390936,0,1386346,7,553216E-06,1,80225,-0,9990387,1,80225,0,1812772,1,80225,-0,2699016
0,1391539,1,12459E-05,1,809,-0,8701304,1,809,0,1127947,1,809,-0,4229801,0,1391539,7,888914E-06,1,809,-1,023209,1,809,0,1409934,1,809,-0,2497597
0,1396731,9,903106E-06,1,81575,-0,8822156,1,81575,0,1087663,1,81575,-0,4068666,0,1396731,7,888914E-06,1,81575,-1,031266,1,81575,0,1127947,1,81575,-0,2497597
0,1401923,8,728161E-06,1,8225,-0,8862439,1,8225,0,1127947,1,8225,-0,4108949,0,1401923,5,539025E-06,1,8225,-1,035294,1,8225,0,0886244,1,8225,-0,2537881
0,1407115,9,567407E-06,1,82925,-0,8943007,1,82925,0,1127947,1,82925,-0,4149233,0,1407115,4,867628E-06,1,82925,-1,027237,1,82925,0,08459602,1,82925,-0,2658732
0,1412308,1,275654E-05,1,836,-0,8862439,1,836,0,1208515,1,836,-0,4108949,0,1412308,4,531929E-06,1,836,-1,023209,1,836,0,08056764,1,836,-0,27393
0,14175,1,594568E-05,1,84275,-0,866102,1,84275,0,1490501,1,84275,-0,4229801,0,14175,3,021286E-06,1,84275,-1,011124,1,84275,0,09265278,1,84275,-0,27393
0,1422692,1,577783E-05,1,8495,-0,8419318,1,8495,0,1732204,1,8495,-0,4511787,0,1422692,2,517739E-06,1,8495,-0,9990387,1,8495,0,1087663,1,8495,-0,2779583
0,1427885,1,258869E-05,1,85625,-0,8137331,1,85625,0,1853056,1,85625,-0,4753491,0,1427885,4,196231E-06,1,85625,-0,9748684,1,85625,0,1289082,1,85625,-0,27393
0,1433077,1,12459E-05,1,863,-0,801648,1,863,0,1893339,1,863,-0,4874342,0,1433077,6,54612E-06,1,863,-0,9547265,1,863,0,1450217,1,863,-0,27393
0,1438269,1,326009E-05,1,86975,-0,801648,1,86975,0,1973907,1,86975,-0,4672923,0,1438269,6,881819E-06,1,86975,-0,9466697,1,86975,0,1611353,1,86975,-0,2819867
0,1443462,1,493858E-05,1,8765,-0,8097047,1,8765,0,1853056,1,8765,-0,4592355,0,1443462,6,54612E-06,1,8765,-0,9386129,1,8765,0,1772488,1,8765,-0,2860151
0,1448654,1,460288E-05,1,88325,-0,8258182,1,88325,0,1812772,1,88325,-0,4552071,0,1448654,7,553216E-06,1,88325,-0,9426414,1,88325,0,1893339,1,88325,-0,2940719
0,1453846,1,460288E-05,1,89,-0,8298466,1,89,0,1893339,1,89,-0,4592355,0,1453846,8,560311E-06,1,89,-0,9547265,1,89,0,2014191,1,89,-0,2981002
0,1459038,1,393149E-05,1,89675,-0,8177615,1,89675,0,2376745,1,89675,-0,4592355,0,1459038,1,12459E-05,1,89675,-0,9587549,1,89675,0,2255894,1,89675,-0,2940719
0,1464231,1,426719E-05,1,9035,-0,8177615,1,9035,0,2699016,1,9035,-0,4552071,0,1464231,1,258869E-05,1,9035,-0,9748684,1,9035,0,2376745,1,9035,-0,2900435
0,1469423,1,577783E-05,1,91025,-0,8217899,1,91025,0,2900435,1,91025,-0,443122,0,1469423,1,19173E-05,1,91025,-0,9869535,1,91025,0,2417029,1,91025,-0,2819867
0,1474615,1,460288E-05,1,917,-0,8298466,1,917,0,2779583,1,917,-0,4592355,0,1474615,1,05745E-05,1,917,-1,007095,1,917,0,2457313,1,917,-0,2819867
0,1479808,1,225299E-05,1,92375,-0,8379034,1,92375,0,2578164,1,92375,-0,4834058,0,1479808,1,05745E-05,1,92375,-1,023209,1,92375,0,2417029,1,92375,-0,27393
0,1485,1,107805E-05,1,9305,-0,8419318,1,9305,0,2376745,1,9305,-0,4914626,0,1485,1,05745E-05,1,9305,-1,027237,1,9305,0,2296178,1,9305,-0,2699016
0,1490192,1,02388E-05,1,93725,-0,8499885,1,93725,0,2054475,1,93725,-0,4632639,0,1490192,1,12459E-05,1,93725,-1,027237,1,93725,0,2135042,1,93725,-0,2779583
0,1495385,1,05745E-05,1,944,-0,8499885,1,944,0,1490501,1,944,-0,4592355,0,1495385,1,141375E-05,1,944,-1,027237,1,944,0,2014191,1,944,-0,2940719
0,1500577,1,02388E-05,1,95075,-0,8499885,1,95075,0,09265278,1,95075,-0,4874342,0,1500577,1,107805E-05,1,95075,-1,023209,1,95075,0,1772488,1,95075,-0,2981002
0,1505769,8,392462E-06,1,9575,-0,833875,1,9575,0,06445411,1,9575,-0,527718,0,1505769,1,225299E-05,1,9575,-1,031266,1,9575,0,1530785,1,9575,-0,3101854
0,1510962,8,89601E-06,1,96425,-0,8298466,1,96425,0,06445411,1,96425,-0,5518883,0,1510962,1,19173E-05,1,96425,-1,023209,1,96425,0,1450217,1,96425,-0,3222705
0,1516154,1,05745E-05,1,971,-0,8177615,1,971,0,1047379,1,971,-0,5478599,0,1516154,9,063859E-06,1,971,-1,031266,1,971,0,136965,1,971,-0,3343557
0,1521346,1,02388E-05,1,97775,-0,8137331,1,97775,0,1490501,1,97775,-0,5236896,0,1521346,6,881819E-06,1,97775,-1,015152,1,97775,0,1208515,1,97775,-0,358526
0,1526538,7,888914E-06,1,9845,-0,7895628,1,9845,0,1732204,1,9845,-0,5116045,0,1526538,5,203327E-06,1,9845,-1,015152,1,9845,0,1087663,1,9845,-0,3786679
0,1531731,7,217517E-06,1,99125,-0,7694209,1,99125,0,1933623,1,99125,-0,5075761,0,1531731,7,217517E-06,1,99125,-1,003067,1,99125,0,09668116,1,99125,-0,4108949
0,1536923,7,721065E-06,1,998,-0,7694209,1,998,0,2094758,1,998,-0,5236896,0,1536923,9,567407E-06,1,998,-0,9990387,1,998,0,09265278,1,998,-0,4270085
0,1542115,9,567407E-06,2,00475,-0,7855344,2,00475,0,2296178,2,00475,-0,5116045,0,1542115,8,392462E-06,2,00475,-0,9990387,2,00475,0,09265278,2,00475,-0,4390936
0,1547308,1,02388E-05,2,0115,-0,8217899,2,0115,0,1571069,2,0115,-0,5156329,0,1547308,7,049668E-06,2,0115,-1,007095,2,0115,0,1047379,2,0115,-0,4310368
0,15525,9,735257E-06,2,01825,-0,8741588,2,01825,0,08056764,2,01825,-0,527718,0,15525,6,54612E-06,2,01825,-1,023209,2,01825,0,1087663,2,01825,-0,4310368
0,1557692,8,392462E-06,2,025,-0,9265279,2,025,0,03222705,2,025,-0,5317464,0,1557692,6,042573E-06,2,025,-1,051408,2,025,0,1087663,2,025,-0,4229801
0,1562885,7,217517E-06,2,03175,-0,9788967,2,03175,0,03625543,2,03175,-0,5518883,0,1562885,8,224613E-06,2,03175,-1,075578,2,03175,0,1127947,2,03175,-0,4028382
0,1568077,6,71397E-06,2,0385,-0,9990387,2,0385,0,1087663,2,0385,-0,559945,0,1568077,9,903106E-06,2,0385,-1,111833,2,0385,0,09668116,2,0385,-0,3988098
0,1573269,7,217517E-06,2,04525,-1,003067,2,04525,0,2014191,2,04525,-0,5720302,0,1573269,7,721065E-06,2,04525,-1,131975,2,04525,0,09265278,2,04525,-0,3826963
0,1578462,8,560311E-06,2,052,-0,9990387,2,052,0,2900435,2,052,-0,5720302,0,1578462,4,867628E-06,2,052,-1,168231,2,052,0,09668116,2,052,-0,3826963
0,1583654,8,728161E-06,2,05875,-0,9627832,2,05875,0,3222705,2,05875,-0,5478599,0,1583654,3,189135E-06,2,05875,-1,184344,2,05875,0,09668116,2,05875,-0,3786679
0,1588846,9,231708E-06,2,0655,-0,9305562,2,0655,0,2981002,2,0655,-0,5357748,0,1588846,4,699778E-06,2,0655,-1,180316,2,0655,0,08459602,2,0655,-0,3947814
0,1594038,8,728161E-06,2,07225,-0,8943007,2,07225,0,2296178,2,07225,-0,5438315,0,1594038,7,553216E-06,2,07225,-1,14406,2,07225,0,08459602,2,07225,-0,3988098
0,1599231,9,567407E-06,2,079,-0,8540169,2,079,0,1490501,2,079,-0,5800869,0,1599231,8,560311E-06,2,079,-1,091691,2,079,0,07251087,2,079,-0,4189517
0,1604423,1,225299E-05,2,08575,-0,8217899,2,08575,0,1007095,2,08575,-0,5962005,0,1604423,7,888914E-06,2,08575,-1,031266,2,08575,0,06445411,2,08575,-0,443122
0,1609615,1,477073E-05,2,0925,-0,8056763,2,0925,0,07251087,2,0925,-0,6002288,0,1609615,6,881819E-06,2,0925,-0,9748684,2,0925,0,06042573,2,0925,-0,4672923
0,1614808,1,460288E-05,2,09925,-0,801648,2,09925,0,08056764,2,09925,-0,6042572,0,1614808,7,553216E-06,2,09925,-0,9386129,2,09925,0,04028382,2,09925,-0,4874342
0,162,1,242084E-05,2,106,-0,8097047,2,106,0,09265278,2,106,-0,6002288,0,162,8,224613E-06,2,106,-0,9345846,2,106,0,02417029,2,106,-0,5116045
0,1625192,1,107805E-05,2,11275,-0,8379034,2,11275,0,1168231,2,11275,-0,612314,0,1625192,9,063859E-06,2,11275,-0,9506981,2,11275,0,02417029,2,11275,-0,527718
0,1630385,1,174945E-05,2,1195,-0,8620737,2,1195,0,136965,2,1195,-0,6364843,0,1630385,8,560311E-06,2,1195,-0,9668117,2,1195,0,02014191,2,1195,-0,5438315
0,1635577,1,275654E-05,2,12625,-0,866102,2,12625,0,1611353,2,12625,-0,6687114,0,1635577,8,560311E-06,2,12625,-0,9668117,2,12625,0,0443122,2,12625,-0,5478599
0,1640769,1,326009E-05,2,133,-0,8540169,2,133,0,1772488,2,133,-0,6807965,0,1640769,1,09102E-05,2,133,-0,9627832,2,133,0,07251087,2,133,-0,5438315
0,1645962,1,426719E-05,2,13975,-0,8258182,2,13975,0,1812772,2,13975,-0,6606546,0,1645962,9,903106E-06,2,13975,-0,9627832,2,13975,0,1087663,2,13975,-0,527718
0,1651154,1,258869E-05,2,1465,-0,7976196,2,1465,0,1732204,2,1465,-0,6525978,0,1651154,8,392462E-06,2,1465,-0,97084,2,1465,0,1168231,2,1465,-0,4995193
0,1656346,1,040665E-05,2,15325,-0,7774777,2,15325,0,1651637,2,15325,-0,6525978,0,1656346,9,231708E-06,2,15325,-0,9869535,2,15325,0,09668116,2,15325,-0,4713207
0,1661538,9,231708E-06,2,16,-0,7694209,2,16,0,1651637,2,16,-0,6727397,0,1661538,1,05745E-05,2,16,-1,003067,2,16,0,06042573,2,16,-0,4592355
0,1666731,8,560311E-06,2,16675,-0,7855344,2,16675,0,1772488,2,16675,-0,6727397,0,1666731,9,903106E-06,2,16675,-1,011124,2,16675,0,03222705,2,16675,-0,4552071
0,1671923,6,54612E-06,2,1735,-0,8137331,2,1735,0,1933623,2,1735,-0,6566262,0,1671923,7,049668E-06,2,1735,-1,003067,2,1735,0,2,1735,-0,4713207
0,1677115,6,54612E-06,2,18025,-0,833875,2,18025,0,2135042,2,18025,-0,6284276,0,1677115,7,888914E-06,2,18025,-0,9748684,2,18025,-0,004028382,2,18025,-0,4793774
0,1682308,8,392462E-06,2,187,-0,8419318,2,187,0,2336462,2,187,-0,6243992,0,1682308,9,903106E-06,2,187,-0,9506981,2,187,-0,004028382,2,187,-0,4793774
0,16875,1,19173E-05,2,19375,-0,8419318,2,19375,0,2175326,2,19375,-0,6324559,0,16875,1,12459E-05,2,19375,-0,9224994,2,19375,0,2,19375,-0,4753491
0,1692692,1,460288E-05,2,2005,-0,8379034,2,2005,0,1732204,2,2005,-0,6485695,0,1692692,1,02388E-05,2,2005,-0,9023575,2,2005,-0,004028382,2,2005,-0,4793774
0,1697885,1,426719E-05,2,20725,-0,8379034,2,20725,0,1409934,2,20725,-0,6606546,0,1697885,9,231708E-06,2,20725,-0,8902723,2,20725,-0,004028382,2,20725,-0,4793774
0,1703077,1,225299E-05,2,214,-0,8177615,2,214,0,1087663,2,214,-0,6848249,0,1703077,1,174945E-05,2,214,-0,8741588,2,214,-0,004028382,2,214,-0,4793774
0,1708269,1,258869E-05,2,22075,-0,7734493,2,22075,0,0886244,2,22075,-0,7089952,0,1708269,1,292439E-05,2,22075,-0,8540169,2,22075,0,008056764,2,22075,-0,4753491
0,1713462,1,393149E-05,2,2275,-0,7412222,2,2275,0,07653925,2,2275,-0,69691,0,1713462,1,19173E-05,2,2275,-0,833875,2,2275,0,01611353,2,2275,-0,4874342
0,1718654,1,493858E-05,2,23425,-0,7210803,2,23425,0,0886244,2,23425,-0,6848249,0,1718654,1,15816E-05,2,23425,-0,8177615,2,23425,0,01208515,2,23425,-0,4793774
0,1723846,1,443503E-05,2,241,-0,7170519,2,241,0,1007095,2,241,-0,6687114,0,1723846,1,15816E-05,2,241,-0,8177615,2,241,0,008056764,2,241,-0,4834058
0,1729039,1,05745E-05,2,24775,-0,7371938,2,24775,0,1248798,2,24775,-0,6606546,0,1729039,1,05745E-05,2,24775,-0,833875,2,24775,-0,004028382,2,24775,-0,4914626
0,1734231,8,392462E-06,2,2545,-0,7653925,2,2545,0,1571069,2,2545,-0,6485695,0,1734231,1,02388E-05,2,2545,-0,8540169,2,2545,-0,008056764,2,2545,-0,5075761
0,1739423,9,903106E-06,2,26125,-0,7976196,2,26125,0,1973907,2,26125,-0,6324559,0,1739423,9,399557E-06,2,26125,-0,8701304,2,26125,-0,004028382,2,26125,-0,5116045
0,1744615,1,225299E-05,2,268,-0,8217899,2,268,0,1973907,2,268,-0,6042572,0,1744615,9,063859E-06,2,268,-0,8902723,2,268,0,01611353,2,268,-0,5035477
0,1749808,1,326009E-05,2,27475,-0,8258182,2,27475,0,1812772,2,27475,-0,5720302,0,1749808,9,063859E-06,2,27475,-0,9023575,2,27475,0,03222705,2,27475,-0,4874342
0,1755,1,426719E-05,2,2815,-0,8258182,2,2815,0,1732204,2,2815,-0,5518883,0,1755,9,231708E-06,2,2815,-0,9104142,2,2815,0,04834058,2,2815,-0,4592355
0,1760192,1,460288E-05,2,28825,-0,8137331,2,28825,0,1651637,2,28825,-0,5639734,0,1760192,9,567407E-06,2,28825,-0,9144427,2,28825,0,05639734,2,28825,-0,4350652
0,1765385,1,426719E-05,2,295,-0,8056763,2,295,0,1289082,2,295,-0,6082856,0,1765385,9,063859E-06,2,295,-0,9265279,2,295,0,05639734,2,295,-0,4108949
0,1770577,1,292439E-05,2,30175,-0,8056763,2,30175,0,1007095,2,30175,-0,6566262,0,1770577,7,888914E-06,2,30175,-0,9345846,2,30175,0,05639734,2,30175,-0,3867247
0,1775769,1,12459E-05,2,3085,-0,8097047,2,3085,0,1047379,2,3085,-0,6767681,0,1775769,7,385367E-06,2,3085,-0,9305562,2,3085,0,05236896,2,3085,-0,3665827
0,1780962,1,12459E-05,2,31525,-0,7976196,2,31525,0,1329366,2,31525,-0,6807965,0,1780962,7,049668E-06,2,31525,-0,9224994,2,31525,0,05236896,2,31525,-0,3746395
0,1786154,1,12459E-05,2,322,-0,7895628,2,322,0,1651637,2,322,-0,6767681,0,1786154,7,888914E-06,2,322,-0,9023575,2,322,0,0443122,2,322,-0,3826963
0,1791346,1,208515E-05,2,32875,-0,7653925,2,32875,0,2014191,2,32875,-0,6727397,0,1791346,8,560311E-06,2,32875,-0,8983291,2,32875,0,04028382,2,32875,-0,4189517
0,1796539,1,460288E-05,2,3355,-0,7452506,2,3355,0,2175326,2,3355,-0,6767681,0,1796539,9,903106E-06,2,3355,-0,8983291,2,3355,0,03222705,2,3355,-0,4672923
0,1801731,1,309224E-05,2,34225,-0,7371938,2,34225,0,2094758,2,34225,-0,6888533,0,1801731,1,225299E-05,2,34225,-0,9063858,2,34225,0,02014191,2,34225,-0,5075761
0,1806923,9,903106E-06,2,349,-0,7291371,2,349,0,1853056,2,349,-0,7009384,0,1806923,1,258869E-05,2,349,-0,9063858,2,349,0,004028382,2,349,-0,5398031
0,1812115,1,040665E-05,2,35575,-0,7291371,2,35575,0,1611353,2,35575,-0,7170519,0,1812115,9,399557E-06,2,35575,-0,9023575,2,35575,-0,008056764,2,35575,-0,5720302
0,1817308,1,174945E-05,2,3625,-0,7291371,2,3625,0,1571069,2,3625,-0,7331654,0,1817308,6,042573E-06,2,3625,-0,8902723,2,3625,-0,02014191,2,3625,-0,5881437
0,18225,1,242084E-05,2,36925,-0,7331654,2,36925,0,2014191,2,36925,-0,7251087,0,18225,5,706875E-06,2,36925,-0,8983291,2,36925,-0,03222705,2,36925,-0,5881437
0,1827692,1,12459E-05,2,376,-0,7331654,2,376,0,2336462,2,376,-0,6888533,0,1827692,7,888914E-06,2,376,-0,9144427,2,376,-0,04028382,2,376,-0,5962005
0,1832885,1,05745E-05,2,38275,-0,7452506,2,38275,0,2497597,2,38275,-0,6687114,0,1832885,1,05745E-05,2,38275,-0,9426414,2,38275,-0,04834058,2,38275,-0,5760586
0,1838077,1,09102E-05,2,3895,-0,7613642,2,3895,0,221561,2,3895,-0,6485695,0,1838077,1,19173E-05,2,3895,-0,9869535,2,3895,-0,06445411,2,3895,-0,5518883
0,1843269,1,275654E-05,2,39625,-0,7855344,2,39625,0,1812772,2,39625,-0,6445411,0,1843269,1,007095E-05,2,39625,-1,031266,2,39625,-0,08459602,2,39625,-0,4995193
0,1848462,1,359579E-05,2,403,-0,8097047,2,403,0,1168231,2,403,-0,6445411,0,1848462,8,560311E-06,2,403,-1,063493,2,403,-0,09668116,2,403,-0,4471503
0,1853654,1,292439E-05,2,40975,-0,8379034,2,40975,0,06042573,2,40975,-0,6485695,0,1853654,7,553216E-06,2,40975,-1,079606,2,40975,-0,09265278,2,40975,-0,3988098
0,1858846,1,225299E-05,2,4165,-0,8459601,2,4165,0,03222705,2,4165,-0,6727397,0,1858846,7,049668E-06,2,4165,-1,09572,2,4165,-0,09265278,2,4165,-0,3625543
0,1864039,1,007095E-05,2,42325,-0,8540169,2,42325,0,05236896,2,42325,-0,6888533,0,1864039,7,888914E-06,2,42325,-1,09572,2,42325,-0,09265278,2,42325,-0,3504692
0,1869231,8,89601E-06,2,43,-0,8298466,2,43,0,1127947,2,43,-0,7009384,0,1869231,9,231708E-06,2,43,-1,083635,2,43,-0,08459602,2,43,-0,3544976
0,1874423,1,05745E-05,2,43675,-0,8097047,2,43675,0,1812772,2,43675,-0,6848249,0,1874423,1,05745E-05,2,43675,-1,059464,2,43675,-0,08056764,2,43675,-0,3665827
0,1879615,1,225299E-05,2,4435,-0,7935912,2,4435,0,2336462,2,4435,-0,6767681,0,1879615,9,063859E-06,2,4435,-1,039322,2,4435,-0,06042573,2,4435,-0,390753
0,1884808,1,292439E-05,2,45025,-0,7895628,2,45025,0,2578164,2,45025,-0,6485695,0,1884808,5,874724E-06,2,45025,-1,011124,2,45025,-0,05639734,2,45025,-0,4149233
0,189,1,292439E-05,2,457,-0,7895628,2,457,0,2537881,2,457,-0,6485695,0,189,4,028382E-06,2,457,-0,9869535,2,457,-0,04028382,2,457,-0,4471503
0,1895192,1,292439E-05,2,46375,-0,8137331,2,46375,0,2457313,2,46375,-0,6485695,0,1895192,5,874724E-06,2,46375,-0,9748684,2,46375,-0,03222705,2,46375,-0,4713207
0,1900385,1,19173E-05,2,4705,-0,8419318,2,4705,0,2336462,2,4705,-0,664683,0,1900385,8,728161E-06,2,4705,-0,9668117,2,4705,-0,02819867,2,4705,-0,495491
0,1905577,1,02388E-05,2,47725,-0,8620737,2,47725,0,2175326,2,47725,-0,6767681,0,1905577,9,903106E-06,2,47725,-0,9748684,2,47725,-0,02417029,2,47725,-0,5116045
0,1910769,7,217517E-06,2,484,-0,866102,2,484,0,2054475,2,484,-0,664683,0,1910769,9,567407E-06,2,484,-0,9950103,2,484,-0,02417029,2,484,-0,5116045
0,1915962,6,54612E-06,2,49075,-0,8540169,2,49075,0,2054475,2,49075,-0,6606546,0,1915962,7,553216E-06,2,49075,-1,003067,2,49075,-0,01611353,2,49075,-0,5156329
0,1921154,7,888914E-06,2,4975,-0,8459601,2,4975,0,2014191,2,4975,-0,6687114,0,1921154,6,378271E-06,2,4975,-1,011124,2,4975,-0,008056764,2,4975,-0,4995193
0,1926346,9,063859E-06,2,50425,-0,8217899,2,50425,0,2014191,2,50425,-0,6727397,0,1926346,6,54612E-06,2,50425,-1,031266,2,50425,-0,004028382,2,50425,-0,4753491
0,1931538,1,040665E-05,2,511,-0,8097047,2,511,0,2054475,2,511,-0,6848249,0,1931538,6,210422E-06,2,511,-1,047379,2,511,-0,004028382,2,511,-0,4511787
0,1936731,1,040665E-05,2,51775,-0,7976196,2,51775,0,221561,2,51775,-0,6888533,0,1936731,7,217517E-06,2,51775,-1,059464,2,51775,-0,004028382,2,51775,-0,4310368
0,1941923,8,224613E-06,2,5245,-0,7976196,2,5245,0,2255894,2,5245,-0,69691,0,1941923,8,056764E-06,2,5245,-1,059464,2,5245,-0,02014191,2,5245,-0,4189517
0,1947115,7,385367E-06,2,53125,-0,801648,2,53125,0,221561,2,53125,-0,6928816,0,1947115,7,888914E-06,2,53125,-1,047379,2,53125,-0,03222705,2,53125,-0,4149233
0,1952308,7,553216E-06,2,538,-0,8097047,2,538,0,2135042,2,538,-0,6848249,0,1952308,7,721065E-06,2,538,-1,043351,2,538,-0,04834058,2,538,-0,4189517
0,19575,7,888914E-06,2,54475,-0,8177615,2,54475,0,2135042,2,54475,-0,6566262,0,19575,7,217517E-06,2,54475,-1,023209,2,54475,-0,05639734,2,54475,-0,4189517
0,1962692,7,553216E-06,2,5515,-0,8177615,2,5515,0,2255894,2,5515,-0,6445411,0,1962692,5,874724E-06,2,5515,-1,011124,2,5515,-0,06445411,2,5515,-0,4310368
0,1967885,7,888914E-06,2,55825,-0,8217899,2,55825,0,2376745,2,55825,-0,6485695,0,1967885,6,881819E-06,2,55825,-1,007095,2,55825,-0,08056764,2,55825,-0,4471503
0,1973077,1,02388E-05,2,565,-0,8137331,2,565,0,2255894,2,565,-0,6727397,0,1973077,8,224613E-06,2,565,-0,9990387,2,565,-0,09265278,2,565,-0,4632639
0,1978269,1,242084E-05,2,57175,-0,801648,2,57175,0,2255894,2,57175,-0,69691,0,1978269,6,378271E-06,2,57175,-0,9950103,2,57175,-0,09668116,2,57175,-0,4793774
0,1983462,1,326009E-05,2,5785,-0,7976196,2,5785,0,221561,2,5785,-0,7210803,0,1983462,7,217517E-06,2,5785,-1,003067,2,5785,-0,09265278,2,5785,-0,4874342
0,1988654,1,258869E-05,2,58525,-0,7895628,2,58525,0,2094758,2,58525,-0,7210803,0,1988654,9,231708E-06,2,58525,-1,015152,2,58525,-0,0886244,2,58525,-0,4914626
0,1993846,1,12459E-05,2,592,-0,801648,2,592,0,1933623,2,592,-0,7331654,0,1993846,8,224613E-06,2,592,-1,027237,2,592,-0,0886244,2,592,-0,4995193
0,1999038,1,12459E-05,2,59875,-0,801648,2,59875,0,1732204,2,59875,-0,7371938,0,1999038,8,056764E-06,2,59875,-1,027237,2,59875,-0,09265278,2,59875,-0,5236896
0,2004231,1,12459E-05,2,6055,-0,7935912,2,6055,0,1571069,2,6055,-0,749279,0,2004231,8,560311E-06,2,6055,-1,031266,2,6055,-0,09265278,2,6055,-0,5478599
0,2009423,1,107805E-05,2,61225,-0,7774777,2,61225,0,1611353,2,61225,-0,7653925,0,2009423,6,881819E-06,2,61225,-1,035294,2,61225,-0,09265278,2,61225,-0,5639734
0,2014615,1,12459E-05,2,619,-0,7694209,2,619,0,1933623,2,619,-0,7855344,0,2014615,6,881819E-06,2,619,-1,039322,2,619,-0,09265278,2,619,-0,5720302
0,2019808,9,903106E-06,2,62575,-0,7613642,2,62575,0,2175326,2,62575,-0,7976196,0,2019808,8,056764E-06,2,62575,-1,027237,2,62575,-0,09668116,2,62575,-0,5720302
0,2025,7,049668E-06,2,6325,-0,7653925,2,6325,0,2658732,2,6325,-0,7976196,0,2025,7,888914E-06,2,6325,-1,019181,2,6325,-0,1007095,2,6325,-0,5639734
0,2030192,6,042573E-06,2,63925,-0,7774777,2,63925,0,3021286,2,63925,-0,7895628,0,2030192,7,888914E-06,2,63925,-0,9909819,2,63925,-0,1127947,2,63925,-0,5680018
0,2035385,8,392462E-06,2,646,-0,7895628,2,646,0,3262989,2,646,-0,7734493,0,2035385,7,553216E-06,2,646,-0,9829252,2,646,-0,1289082,2,646,-0,559945
0,2040577,1,09102E-05,2,65275,-0,8137331,2,65275,0,3383841,2,65275,-0,7371938,0,2040577,6,54612E-06,2,65275,-0,97084,2,65275,-0,1490501,2,65275,-0,5398031
0,2045769,1,19173E-05,2,6595,-0,8137331,2,6595,0,3343557,2,6595,-0,7130235,0,2045769,8,89601E-06,2,6595,-0,9829252,2,6595,-0,1611353,2,6595,-0,5196612
0,2050962,9,903106E-06,2,66625,-0,8177615,2,66625,0,3222705,2,66625,-0,7170519,0,2050962,9,903106E-06,2,66625,-0,9909819,2,66625,-0,1853056,2,66625,-0,5035477
0,2056154,8,560311E-06,2,673,-0,8177615,2,673,0,2981002,2,673,-0,7251087,0,2056154,8,560311E-06,2,673,-1,007095,2,673,-0,1893339,2,673,-0,4713207
0,2061346,9,903106E-06,2,67975,-0,8097047,2,67975,0,2578164,2,67975,-0,7251087,0,2061346,7,888914E-06,2,67975,-1,011124,2,67975,-0,1973907,2,67975,-0,4471503
0,2066538,1,040665E-05,2,6865,-0,8097047,2,6865,0,221561,2,6865,-0,7170519,0,2066538,7,217517E-06,2,6865,-1,019181,2,6865,-0,2014191,2,6865,-0,4149233
0,2071731,9,231708E-06,2,69325,-0,8177615,2,69325,0,1973907,2,69325,-0,6888533,0,2071731,7,888914E-06,2,69325,-1,023209,2,69325,-0,1893339,2,69325,-0,3947814
0,2076923,8,392462E-06,2,7,-0,8298466,2,7,0,1933623,2,7,-0,6606546,0,2076923,1,12459E-05,2,7,-1,023209,2,7,-0,1812772,2,7,-0,3786679
0,2082115,1,107805E-05,2,70675,-0,8419318,2,70675,0,2135042,2,70675,-0,6727397,0,2082115,1,275654E-05,2,70675,-1,011124,2,70675,-0,1732204,2,70675,-0,3706111
0,2087308,1,15816E-05,2,7135,-0,8419318,2,7135,0,2457313,2,7135,-0,6767681,0,2087308,1,05745E-05,2,7135,-0,9990387,2,7135,-0,169192,2,7135,-0,3665827
0,20925,9,231708E-06,2,72025,-0,8419318,2,72025,0,2981002,2,72025,-0,6606546,0,20925,8,392462E-06,2,72025,-0,9950103,2,72025,-0,1853056,2,72025,-0,3746395
0,2097692,1,02388E-05,2,727,-0,8298466,2,727,0,3343557,2,727,-0,6405127,0,2097692,7,217517E-06,2,727,-0,9829252,2,727,-0,1853056,2,727,-0,4068666
0,2102885,1,225299E-05,2,73375,-0,8217899,2,73375,0,3504692,2,73375,-0,6445411,0,2102885,7,553216E-06,2,73375,-0,9506981,2,73375,-0,1732204,2,73375,-0,4189517
0,2108077,1,376364E-05,2,7405,-0,8056763,2,7405,0,3343557,2,7405,-0,6525978,0,2108077,9,231708E-06,2,7405,-0,9224994,2,7405,-0,1571069,2,7405,-0,4108949
0,2113269,1,460288E-05,2,74725,-0,7935912,2,74725,0,3262989,2,74725,-0,6767681,0,2113269,9,567407E-06,2,74725,-0,9144427,2,74725,-0,1530785,2,74725,-0,4108949
0,2118462,1,443503E-05,2,754,-0,7734493,2,754,0,306157,2,754,-0,6767681,0,2118462,9,567407E-06,2,754,-0,9063858,2,754,-0,1450217,2,754,-0,4068666
0,2123654,1,409934E-05,2,76075,-0,7734493,2,76075,0,2860151,2,76075,-0,6445411,0,2123654,8,728161E-06,2,76075,-0,9144427,2,76075,-0,1409934,2,76075,-0,3544976
0,2128846,1,577783E-05,2,7675,-0,7774777,2,7675,0,2699016,2,7675,-0,6203707,0,2128846,9,567407E-06,2,7675,-0,9386129,2,7675,-0,1490501,2,7675,-0,3383841
0,2134039,1,527428E-05,2,77425,-0,7734493,2,77425,0,2497597,2,77425,-0,612314,0,2134039,1,05745E-05,2,77425,-0,9627832,2,77425,-0,1772488,2,77425,-0,3867247
0,2139231,1,258869E-05,2,781,-0,7855344,2,781,0,2255894,2,781,-0,6203707,0,2139231,8,224613E-06,2,781,-0,9587549,2,781,-0,1611353,2,781,-0,390753
0,2144423,1,19173E-05,2,78775,-0,8056763,2,78775,0,2094758,2,78775,-0,6203707,0,2144423,6,881819E-06,2,78775,-0,9869535,2,78775,-0,1530785,2,78775,-0,4189517
0,2149615,1,174945E-05,2,7945,-0,8177615,2,7945,0,1933623,2,7945,-0,6324559,0,2149615,8,560311E-06,2,7945,-0,9950103,2,7945,-0,1450217,2,7945,-0,4511787
0,2154808,1,242084E-05,2,80125,-0,8258182,2,80125,0,1772488,2,80125,-0,6324559,0,2154808,8,560311E-06,2,80125,-1,011124,2,80125,-0,1047379,2,80125,-0,4270085
0,216,1,393149E-05,2,808,-0,8258182,2,808,0,1530785,2,808,-0,6485695,0,216,6,042573E-06,2,808,-1,035294,2,808,-0,1127947,2,808,-0,4713207
0,2165192,1,409934E-05,2,81475,-0,8217899,2,81475,0,1571069,2,81475,-0,6767681,0,2165192,5,706875E-06,2,81475,-0,9990387,2,81475,-0,0886244,2,81475,-0,4793774
0,2170385,1,426719E-05,2,8215,-0,8097047,2,8215,0,1933623,2,8215,-0,6928816,0,2170385,6,54612E-06,2,8215,-0,9506981,2,8215,-0,06848249,2,8215,-0,4552071
0,2175577,1,594568E-05,2,82825,-0,7855344,2,82825,0,2578164,2,82825,-0,6767681,0,2175577,6,71397E-06,2,82825,-0,9023575,2,82825,-0,04834058,2,82825,-0,4350652
0,2180769,1,829557E-05,2,835,-0,7533074,2,835,0,3182422,2,835,-0,6566262,0,2180769,8,224613E-06,2,835,-0,8580453,2,835,-0,04834058,2,835,-0,4149233
0,2185962,1,913481E-05,2,84175,-0,7210803,2,84175,0,3424124,2,84175,-0,6445411,0,2185962,9,735257E-06,2,84175,-0,8177615,2,84175,-0,05236896,2,84175,-0,4108949
0,2191154,1,728847E-05,2,8485,-0,7089952,2,8485,0,3625543,2,8485,-0,6324559,0,2191154,8,89601E-06,2,8485,-0,8056763,2,8485,-0,06042573,2,8485,-0,4149233
0,2196346,1,493858E-05,2,85525,-0,7130235,2,85525,0,3826963,2,85525,-0,6485695,0,2196346,8,224613E-06,2,85525,-0,7895628,2,85525,-0,08056764,2,85525,-0,4028382
0,2201539,1,393149E-05,2,862,-0,7331654,2,862,0,3706111,2,862,-0,6566262,0,2201539,8,89601E-06,2,862,-0,8177615,2,862,-0,09265278,2,862,-0,390753
0,2206731,1,02388E-05,2,86875,-0,7694209,2,86875,0,3182422,2,86875,-0,6405127,0,2206731,1,19173E-05,2,86875,-0,8459601,2,86875,-0,1248798,2,86875,-0,3826963
0,2211923,8,224613E-06,2,8755,-0,8177615,2,8755,0,2699016,2,8755,-0,6243992,0,2211923,1,309224E-05,2,8755,-0,8741588,2,8755,-0,1450217,2,8755,-0,3665827
0,2217115,9,903106E-06,2,88225,-0,8258182,2,88225,0,2296178,2,88225,-0,612314,0,2217115,1,040665E-05,2,88225,-0,9063858,2,88225,-0,1530785,2,88225,-0,358526
0,2222308,1,292439E-05,2,889,-0,833875,2,889,0,1933623,2,889,-0,6042572,0,2222308,8,224613E-06,2,889,-0,9386129,2,889,-0,1571069,2,889,-0,358526
0,22275,1,544213E-05,2,89575,-0,8217899,2,89575,0,169192,2,89575,-0,6163424,0,22275,1,05745E-05,2,89575,-0,9668117,2,89575,-0,1530785,2,89575,-0,3746395
0,2232692,1,560998E-05,2,9025,-0,7976196,2,9025,0,1409934,2,9025,-0,6405127,0,2232692,1,225299E-05,2,9025,-0,97084,2,9025,-0,1571069,2,9025,-0,4028382
0,2237885,1,258869E-05,2,90925,-0,7774777,2,90925,0,1087663,2,90925,-0,6364843,0,2237885,1,107805E-05,2,90925,-0,97084,2,90925,-0,1651637,2,90925,-0,4149233
0,2243077,9,063859E-06,2,916,-0,7694209,2,916,0,08459602,2,916,-0,6163424,0,2243077,9,399557E-06,2,916,-0,9668117,2,916,-0,1732204,2,916,-0,4390936
0,2248269,9,231708E-06,2,92275,-0,7694209,2,92275,0,0886244,2,92275,-0,5800869,0,2248269,8,560311E-06,2,92275,-0,9627832,2,92275,-0,1611353,2,92275,-0,4350652
0,2253462,1,19173E-05,2,9295,-0,7653925,2,9295,0,1168231,2,9295,-0,5921721,0,2253462,7,217517E-06,2,9295,-0,9547265,2,9295,-0,1450217,2,9295,-0,443122
0,2258654,1,292439E-05,2,93625,-0,7694209,2,93625,0,1611353,2,93625,-0,6364843,0,2258654,7,888914E-06,2,93625,-0,9305562,2,93625,-0,1127947,2,93625,-0,4471503
0,2263846,1,292439E-05,2,943,-0,7694209,2,943,0,2054475,2,943,-0,6606546,0,2263846,1,05745E-05,2,943,-0,9224994,2,943,-0,08056764,2,943,-0,4632639
0,2269039,1,19173E-05,2,94975,-0,7694209,2,94975,0,2578164,2,94975,-0,6405127,0,2269039,1,258869E-05,2,94975,-0,9023575,2,94975,-0,06042573,2,94975,-0,4552071
0,2274231,9,063859E-06,2,9565,-0,7573358,2,9565,0,2900435,2,9565,-0,5881437,0,2274231,1,15816E-05,2,9565,-0,8701304,2,9565,-0,03222705,2,9565,-0,443122
0,2279423,7,888914E-06,2,96325,-0,7291371,2,96325,0,3182422,2,96325,-0,5962005,0,2279423,8,392462E-06,2,96325,-0,8540169,2,96325,-0,01611353,2,96325,-0,4149233
0,2284615,9,231708E-06,2,97,-0,7089952,2,97,0,3343557,2,97,-0,6002288,0,2284615,8,224613E-06,2,97,-0,8379034,2,97,-0,01611353,2,97,-0,3988098
0,2289808,1,12459E-05,2,97675,-0,6928816,2,97675,0,3424124,2,97675,-0,6364843,0,2289808,9,903106E-06,2,97675,-0,833875,2,97675,-0,03625543,2,97675,-0,3826963
0,2295,1,225299E-05,2,9835,-0,69691,2,9835,0,3222705,2,9835,-0,6727397,0,2295,9,903106E-06,2,9835,-0,8499885,2,9835,-0,06848249,2,9835,-0,3826963
0,2300192,1,12459E-05,2,99025,-0,7251087,2,99025,0,2940719,2,99025,-0,6445411,0,2300192,8,89601E-06,2,99025,-0,8781872,2,99025,-0,08459602,2,99025,-0,3786679
0,2305385,9,231708E-06,2,997,-0,7653925,2,997,0,2497597,2,997,-0,6163424,0,2305385,9,063859E-06,2,997,-0,9224994,2,997,-0,0886244,2,997,-0,3947814
0,2310577,7,888914E-06,3,00375,-0,7976196,3,00375,0,2014191,3,00375,-0,5921721,0,2310577,9,567407E-06,3,00375,-0,9587549,3,00375,-0,08459602,3,00375,-0,4068666
0,2315769,7,217517E-06,3,0105,-0,8258182,3,0105,0,1611353,3,0105,-0,5881437,0,2315769,9,903106E-06,3,0105,-1,007095,3,0105,-0,09265278,3,0105,-0,4229801
0,2320962,7,888914E-06,3,01725,-0,8580453,3,01725,0,1248798,3,01725,-0,6203707,0,2320962,1,040665E-05,3,01725,-1,051408,3,01725,-0,09668116,3,01725,-0,4471503
0,2326154,9,231708E-06,3,024,-0,8701304,3,024,0,1087663,3,024,-0,6848249,0,2326154,1,05745E-05,3,024,-1,087663,3,024,-0,1087663,3,024,-0,4834058
0,2331346,1,275654E-05,3,03075,-0,8741588,3,03075,0,1087663,3,03075,-0,6848249,0,2331346,9,735257E-06,3,03075,-1,091691,3,03075,-0,1007095,3,03075,-0,5075761
0,2336538,1,460288E-05,3,0375,-0,8620737,3,0375,0,1248798,3,0375,-0,6606546,0,2336538,8,560311E-06,3,0375,-1,07155,3,0375,-0,0886244,3,0375,-0,5357748
0,2341731,1,225299E-05,3,04425,-0,8217899,3,04425,0,1732204,3,04425,-0,6525978,0,2341731,7,888914E-06,3,04425,-1,027237,3,04425,-0,07251087,3,04425,-0,5317464
0,2346923,1,12459E-05,3,051,-0,7815061,3,051,0,2457313,3,051,-0,6807965,0,2346923,6,210422E-06,3,051,-0,9627832,3,051,-0,06445411,3,051,-0,5196612
0,2352115,1,393149E-05,3,05775,-0,7412222,3,05775,0,3303273,3,05775,-0,7371938,0,2352115,5,203327E-06,3,05775,-0,9104142,3,05775,-0,06445411,3,05775,-0,4793774
0,2357308,1,745632E-05,3,0645,-0,7089952,3,0645,0,4068666,3,0645,-0,7452506,0,2357308,6,54612E-06,3,0645,-0,8741588,3,0645,-0,09265278,3,0645,-0,443122
0,23625,1,762417E-05,3,07125,-0,7049668,3,07125,0,4834058,3,07125,-0,7049668,0,23625,8,560311E-06,3,07125,-0,8902723,3,07125,-0,1329366,3,07125,-0,3988098
0,2367692,1,527428E-05,3,078,-0,7291371,3,078,0,527718,3,078,-0,6928816,0,2367692,1,258869E-05,3,078,-0,9265279,3,078,-0,1772488,3,078,-0,3625543
0,2372885,1,309224E-05,3,08475,-0,7653925,3,08475,0,5075761,3,08475,-0,6807965,0,2372885,1,493858E-05,3,08475,-0,9909819,3,08475,-0,2175326,3,08475,-0,3343557
0,2378077,1,19173E-05,3,0915,-0,8217899,3,0915,0,4108949,3,0915,-0,6445411,0,2378077,1,426719E-05,3,0915,-1,055436,3,0915,-0,221561,3,0915,-0,3262989
0,2383269,1,275654E-05,3,09825,-0,8580453,3,09825,0,2819867,3,09825,-0,6324559,0,2383269,1,15816E-05,3,09825,-1,111833,3,09825,-0,2135042,3,09825,-0,3544976
0,2388462,1,628138E-05,3,105,-0,8781872,3,105,0,1611353,3,105,-0,6485695,0,2388462,8,728161E-06,3,105,-1,148089,3,105,-0,1933623,3,105,-0,4028382
0,2393654,1,896696E-05,3,11175,-0,866102,3,11175,0,05639734,3,11175,-0,6606546,0,2393654,8,224613E-06,3,11175,-1,172259,3,11175,-0,1772488,3,11175,-0,4552071
0,2398846,1,728847E-05,3,1185,-0,8540169,3,1185,-0,03625543,3,1185,-0,664683,0,2398846,1,040665E-05,3,1185,-1,164202,3,1185,-0,1530785,3,1185,-0,5156329
0,2404038,1,326009E-05,3,12525,-0,833875,3,12525,-0,0886244,3,12525,-0,664683,0,2404038,1,040665E-05,3,12525,-1,127947,3,12525,-0,1208515,3,12525,-0,559945
0,2409231,1,275654E-05,3,132,-0,801648,3,132,-0,1047379,3,132,-0,6566262,0,2409231,8,224613E-06,3,132,-1,07155,3,132,-0,08056764,3,132,-0,5800869
0,2414423,1,527428E-05,3,13875,-0,7694209,3,13875,-0,06042573,3,13875,-0,6687114,0,2414423,8,89601E-06,3,13875,-1,003067,3,13875,-0,02014191,3,13875,-0,5639734
0,2419615,1,594568E-05,3,1455,-0,7331654,3,1455,0,02417029,3,1455,-0,6445411,0,2419615,1,09102E-05,3,1455,-0,9265279,3,1455,0,04028382,3,1455,-0,5357748
0,2424808,1,493858E-05,3,15225,-0,7009384,3,15225,0,1571069,3,15225,-0,6485695,0,2424808,1,19173E-05,3,15225,-0,8540169,3,15225,0,09265278,3,15225,-0,5075761
0,243,1,409934E-05,3,159,-0,6928816,3,159,0,27393,3,159,-0,664683,0,243,1,208515E-05,3,159,-0,8056763,3,159,0,1248798,3,159,-0,4874342
0,2435192,1,292439E-05,3,16575,-0,6888533,3,16575,0,3826963,3,16575,-0,6606546,0,2435192,9,903106E-06,3,16575,-0,7895628,3,16575,0,1450217,3,16575,-0,4672923
0,2440385,1,359579E-05,3,1725,-0,7130235,3,1725,0,4592355,3,1725,-0,6767681,0,2440385,6,881819E-06,3,1725,-0,8097047,3,1725,0,1490501,3,1725,-0,443122
0,2445577,1,443503E-05,3,17925,-0,749279,3,17925,0,495491,3,17925,-0,7049668,0,2445577,5,706875E-06,3,17925,-0,8580453,3,17925,0,1409934,3,17925,-0,4189517
0,2450769,1,393149E-05,3,186,-0,7855344,3,186,0,4834058,3,186,-0,7130235,0,2450769,6,210422E-06,3,186,-0,9265279,3,186,0,1208515,3,186,-0,4028382
0,2455962,1,258869E-05,3,19275,-0,7935912,3,19275,0,4189517,3,19275,-0,6888533,0,2455962,3,860533E-06,3,19275,-0,9950103,3,19275,0,0886244,3,19275,-0,3947814
0,2461154,9,399557E-06,3,1995,-0,8056763,3,1995,0,3383841,3,1995,-0,6606546,0,2461154,1,846342E-06,3,1995,-1,055436,3,1995,0,03625543,3,1995,-0,4189517
0,2466346,8,560311E-06,3,20625,-0,801648,3,20625,0,2618448,3,20625,-0,6566262,0,2466346,1,174945E-06,3,20625,-1,091691,3,20625,-0,01611353,3,20625,-0,4552071
0,2471538,1,107805E-05,3,213,-0,7935912,3,213,0,1772488,3,213,-0,6606546,0,2471538,8,392462E-07,3,213,-1,115862,3,213,-0,06848249,3,213,-0,5196612
0,2476731,1,040665E-05,3,21975,-0,7895628,3,21975,0,1007095,3,21975,-0,6525978,0,2476731,5,035478E-07,3,21975,-1,136004,3,21975,-0,1007095,3,21975,-0,5559167
0,2481923,6,54612E-06,3,2265,-0,7815061,3,2265,0,05639734,3,2265,-0,6807965,0,2481923,2,517739E-06,3,2265,-1,127947,3,2265,-0,1087663,3,2265,-0,5760586
0,2487115,5,035477E-06,3,23325,-0,7895628,3,23325,0,03222705,3,23325,-0,6767681,0,2487115,3,860533E-06,3,23325,-1,099748,3,23325,-0,09668116,3,23325,-0,5680018
0,2492308,6,378271E-06,3,24,-0,7895628,3,24,0,01208515,3,24,-0,6606546,0,2492308,5,203327E-06,3,24,-1,059464,3,24,-0,07251087,3,24,-0,5317464
0,24975,7,888914E-06,3,24675,-0,7815061,3,24675,0,01208515,3,24675,-0,6485695,0,24975,6,210422E-06,3,24675,-1,027237,3,24675,-0,05236896,3,24675,-0,4914626
0,2502692,8,89601E-06,3,2535,-0,7895628,3,2535,0,02417029,3,2535,-0,6445411,0,2502692,6,378271E-06,3,2535,-0,9950103,3,2535,-0,02819867,3,2535,-0,443122
0,2507885,9,567407E-06,3,26025,-0,7935912,3,26025,0,04028382,3,26025,-0,6566262,0,2507885,7,888914E-06,3,26025,-0,9788967,3,26025,-0,004028382,3,26025,-0,4189517
0,2513077,1,007095E-05,3,267,-0,7976196,3,267,0,07653925,3,267,-0,6525978,0,2513077,9,231708E-06,3,267,-0,9668117,3,267,0,01208515,3,267,-0,4149233
0,2518269,9,231708E-06,3,27375,-0,8137331,3,27375,0,1248798,3,27375,-0,6445411,0,2518269,5,706875E-06,3,27375,-0,9668117,3,27375,0,03222705,3,27375,-0,4149233
0,2523462,6,881819E-06,3,2805,-0,8258182,3,2805,0,1812772,3,2805,-0,6364843,0,2523462,1,510643E-06,3,2805,-0,9748684,3,2805,0,05639734,3,2805,-0,4390936
0,2528654,5,539025E-06,3,28725,-0,8177615,3,28725,0,2497597,3,28725,-0,664683,0,2528654,2,853437E-06,3,28725,-0,9829252,3,28725,0,09668116,3,28725,-0,4672923
0,2533846,5,203327E-06,3,294,-0,7976196,3,294,0,3101854,3,294,-0,6928816,0,2533846,5,706875E-06,3,294,-0,9909819,3,294,0,1248798,3,294,-0,5075761
0,2539038,5,203327E-06,3,30075,-0,7573358,3,30075,0,3544976,3,30075,-0,6848249,0,2539038,8,224613E-06,3,30075,-0,9829252,3,30075,0,1490501,3,30075,-0,5317464
0,2544231,5,539025E-06,3,3075,-0,7412222,3,3075,0,3625543,3,3075,-0,7009384,0,2544231,7,888914E-06,3,3075,-0,9668117,3,3075,0,1571069,3,3075,-0,5357748
0,2549423,5,203327E-06,3,31425,-0,7412222,3,31425,0,3424124,3,31425,-0,7170519,0,2549423,5,035477E-06,3,31425,-0,9506981,3,31425,0,1450217,3,31425,-0,5317464
0,2554615,4,196231E-06,3,321,-0,7653925,3,321,0,3021286,3,321,-0,7533074,0,2554615,3,860533E-06,3,321,-0,9547265,3,321,0,1007095,3,321,-0,5116045
0,2559808,5,539025E-06,3,32775,-0,7774777,3,32775,0,2699016,3,32775,-0,7815061,0,2559808,5,706875E-06,3,32775,-0,9829252,3,32775,0,0443122,3,32775,-0,4874342
0,2565,6,881819E-06,3,3345,-0,801648,3,3345,0,2296178,3,3345,-0,7653925,0,2565,8,224613E-06,3,3345,-0,9950103,3,3345,-0,02014191,3,3345,-0,4592355
0,2570192,5,874724E-06,3,34125,-0,8137331,3,34125,0,1973907,3,34125,-0,7251087,0,2570192,1,040665E-05,3,34125,-1,015152,3,34125,-0,06848249,3,34125,-0,4511787
0,2575385,4,867628E-06,3,348,-0,833875,3,348,0,169192,3,348,-0,69691,0,2575385,1,05745E-05,3,348,-1,027237,3,348,-0,09265278,3,348,-0,4471503
0,2580577,3,524834E-06,3,35475,-0,8499885,3,35475,0,169192,3,35475,-0,6687114,0,2580577,1,05745E-05,3,35475,-1,031266,3,35475,-0,09668116,3,35475,-0,4471503
0,2585769,3,860533E-06,3,3615,-0,8580453,3,3615,0,169192,3,3615,-0,6566262,0,2585769,1,09102E-05,3,3615,-1,043351,3,3615,-0,06445411,3,3615,-0,4511787
0,2590961,5,874724E-06,3,36825,-0,866102,3,36825,0,1732204,3,36825,-0,6888533,0,2590961,8,89601E-06,3,36825,-1,051408,3,36825,-0,02417029,3,36825,-0,4552071
0,2596154,6,54612E-06,3,375,-0,8459601,3,375,0,1611353,3,375,-0,6767681,0,2596154,5,874724E-06,3,375,-1,031266,3,375,0,01611353,3,375,-0,4632639
0,2601346,7,049668E-06,3,38175,-0,8137331,3,38175,0,1248798,3,38175,-0,6566262,0,2601346,5,874724E-06,3,38175,-0,9950103,3,38175,0,03625543,3,38175,-0,4511787
0,2606539,6,210422E-06,3,3885,-0,7855344,3,3885,0,09668116,3,3885,-0,6405127,0,2606539,7,888914E-06,3,3885,-0,9587549,3,3885,0,0443122,3,3885,-0,4390936
0,2611731,5,706875E-06,3,39525,-0,7734493,3,39525,0,09668116,3,39525,-0,6284276,0,2611731,9,735257E-06,3,39525,-0,9305562,3,39525,0,03625543,3,39525,-0,4350652
0,2616923,7,217517E-06,3,402,-0,7895628,3,402,0,1289082,3,402,-0,6485695,0,2616923,9,903106E-06,3,402,-0,9224994,3,402,0,03222705,3,402,-0,4270085
0,2622115,9,231708E-06,3,40875,-0,8177615,3,40875,0,1732204,3,40875,-0,6566262,0,2622115,8,560311E-06,3,40875,-0,9386129,3,40875,0,0443122,3,40875,-0,4229801
0,2627308,1,05745E-05,3,4155,-0,8459601,3,4155,0,2296178,3,4155,-0,6525978,0,2627308,6,210422E-06,3,4155,-0,9627832,3,4155,0,07653925,3,4155,-0,4108949
0,26325,1,02388E-05,3,42225,-0,8701304,3,42225,0,2779583,3,42225,-0,6364843,0,26325,4,531929E-06,3,42225,-0,9788967,3,42225,0,1047379,3,42225,-0,4068666
0,2637692,9,567407E-06,3,429,-0,866102,3,429,0,3101854,3,429,-0,6243992,0,2637692,5,035477E-06,3,429,-0,9869535,3,429,0,1409934,3,429,-0,4108949
0,2642885,8,224613E-06,3,43575,-0,8298466,3,43575,0,2900435,3,43575,-0,6203707,0,2642885,6,54612E-06,3,43575,-0,9829252,3,43575,0,1329366,3,43575,-0,4068666
0,2648077,8,560311E-06,3,4425,-0,7895628,3,4425,0,2819867,3,4425,-0,6243992,0,2648077,5,539025E-06,3,4425,-0,9748684,3,4425,0,1047379,3,4425,-0,4108949
0,2653269,9,903106E-06,3,44925,-0,7573358,3,44925,0,2779583,3,44925,-0,6405127,0,2653269,3,860533E-06,3,44925,-0,9466697,3,44925,0,08056764,3,44925,-0,4028382
0,2658462,1,05745E-05,3,456,-0,749279,3,456,0,2497597,3,456,-0,6324559,0,2658462,5,874724E-06,3,456,-0,9426414,3,456,0,06042573,3,456,-0,4028382
0,2663654,1,12459E-05,3,46275,-0,7694209,3,46275,0,2014191,3,46275,-0,6082856,0,2663654,8,224613E-06,3,46275,-0,9426414,3,46275,0,03625543,3,46275,-0,3867247
0,2668846,9,567407E-06,3,4695,-0,8137331,3,4695,0,1409934,3,4695,-0,5962005,0,2668846,9,063859E-06,3,4695,-0,9788967,3,4695,0,02014191,3,4695,-0,390753
0,2674038,7,721065E-06,3,47625,-0,866102,3,47625,0,1087663,3,47625,-0,6082856,0,2674038,9,903106E-06,3,47625,-1,023209,3,47625,0,01611353,3,47625,-0,3867247
0,2679231,9,231708E-06,3,483,-0,9063858,3,483,0,09265278,3,483,-0,6163424,0,2679231,9,903106E-06,3,483,-1,059464,3,483,0,3,483,-0,4108949
0,2684423,1,19173E-05,3,48975,-0,9063858,3,48975,0,1248798,3,48975,-0,6082856,0,2684423,8,89601E-06,3,48975,-1,083635,3,48975,0,004028382,3,48975,-0,4108949
0,2689615,1,275654E-05,3,4965,-0,8781872,3,4965,0,1812772,3,4965,-0,6002288,0,2689615,1,007095E-05,3,4965,-1,087663,3,4965,0,02417029,3,4965,-0,4229801
0,2694808,1,174945E-05,3,50325,-0,8298466,3,50325,0,2255894,3,50325,-0,5881437,0,2694808,1,292439E-05,3,50325,-1,079606,3,50325,0,0443122,3,50325,-0,4229801
0,27,1,19173E-05,3,51,-0,7855344,3,51,0,2457313,3,51,-0,5881437,0,27,1,326009E-05,3,51,-1,035294,3,51,0,06445411,3,51,-0,3988098
0,2705192,1,19173E-05,3,51675,-0,7533074,3,51675,0,2457313,3,51675,-0,5921721,0,2705192,1,107805E-05,3,51675,-0,9950103,3,51675,0,05639734,3,51675,-0,3746395
0,2710385,1,05745E-05,3,5235,-0,7412222,3,5235,0,2135042,3,5235,-0,5962005,0,2710385,8,89601E-06,3,5235,-0,9466697,3,5235,0,04834058,3,5235,-0,3625543
0,2715577,7,888914E-06,3,53025,-0,7573358,3,53025,0,1933623,3,53025,-0,6082856,0,2715577,8,392462E-06,3,53025,-0,9265279,3,53025,0,02819867,3,53025,-0,3544976
0,2720769,6,54612E-06,3,537,-0,7976196,3,537,0,1853056,3,537,-0,6082856,0,2720769,1,12459E-05,3,537,-0,9184711,3,537,0,02417029,3,537,-0,3504692
0,2725962,9,567407E-06,3,54375,-0,8540169,3,54375,0,1732204,3,54375,-0,5962005,0,2725962,1,174945E-05,3,54375,-0,9466697,3,54375,0,02819867,3,54375,-0,3786679
0,2731154,1,258869E-05,3,5505,-0,8902723,3,5505,0,1732204,3,5505,-0,5720302,0,2731154,8,89601E-06,3,5505,-0,97084,3,5505,0,03625543,3,5505,-0,4028382
0,2736346,1,258869E-05,3,55725,-0,8983291,3,55725,0,169192,3,55725,-0,5760586,0,2736346,6,54612E-06,3,55725,-0,9950103,3,55725,0,06848249,3,55725,-0,4229801
0,2741539,1,19173E-05,3,564,-0,8701304,3,564,0,1530785,3,564,-0,6243992,0,2741539,6,210422E-06,3,564,-1,003067,3,564,0,1007095,3,564,-0,4511787
0,2746731,1,258869E-05,3,57075,-0,8258182,3,57075,0,1450217,3,57075,-0,6243992,0,2746731,7,217517E-06,3,57075,-0,9909819,3,57075,0,1208515,3,57075,-0,4713207
0,2751923,1,409934E-05,3,5775,-0,7774777,3,5775,0,1772488,3,5775,-0,6163424,0,2751923,8,392462E-06,3,5775,-0,9627832,3,5775,0,1208515,3,5775,-0,4793774
0,2757115,1,594568E-05,3,58425,-0,7371938,3,58425,0,2457313,3,58425,-0,612314,0,2757115,7,721065E-06,3,58425,-0,9345846,3,58425,0,1087663,3,58425,-0,4713207
0,2762308,1,695277E-05,3,591,-0,7331654,3,591,0,2900435,3,591,-0,6082856,0,2762308,5,539025E-06,3,591,-0,9345846,3,591,0,08459602,3,591,-0,4511787
0,27675,1,594568E-05,3,59775,-0,7774777,3,59775,0,2819867,3,59775,-0,6284276,0,27675,6,042573E-06,3,59775,-0,9506981,3,59775,0,07653925,3,59775,-0,4350652
0,2772692,1,527428E-05,3,6045,-0,8419318,3,6045,0,2336462,3,6045,-0,6284276,0,2772692,6,881819E-06,3,6045,-0,9788967,3,6045,0,0886244,3,6045,-0,4310368
0,2777885,1,426719E-05,3,61125,-0,9104142,3,61125,0,169192,3,61125,-0,5962005,0,2777885,7,217517E-06,3,61125,-1,011124,3,61125,0,09265278,3,61125,-0,4270085
0,2783077,1,258869E-05,3,618,-0,9587549,3,618,0,1611353,3,618,-0,5962005,0,2783077,7,721065E-06,3,618,-1,035294,3,618,0,0886244,3,618,-0,4270085
0,2788269,1,107805E-05,3,62475,-0,9426414,3,62475,0,1772488,3,62475,-0,6082856,0,2788269,7,553216E-06,3,62475,-1,055436,3,62475,0,06445411,3,62475,-0,4270085
0,2793462,1,05745E-05,3,6315,-0,8741588,3,6315,0,2094758,3,6315,-0,6002288,0,2793462,8,560311E-06,3,6315,-1,051408,3,6315,0,02417029,3,6315,-0,4310368
0,2798654,1,15816E-05,3,63825,-0,7855344,3,63825,0,2457313,3,63825,-0,5881437,0,2798654,9,399557E-06,3,63825,-1,035294,3,63825,0,004028382,3,63825,-0,4270085
0,2803846,1,292439E-05,3,645,-0,7210803,3,645,0,2376745,3,645,-0,6082856,0,2803846,7,721065E-06,3,645,-1,007095,3,645,-0,004028382,3,645,-0,4189517
0,2809038,1,19173E-05,3,65175,-0,6888533,3,65175,0,2094758,3,65175,-0,5962005,0,2809038,5,035477E-06,3,65175,-0,9950103,3,65175,0,008056764,3,65175,-0,3988098
0,2814231,1,12459E-05,3,6585,-0,7170519,3,6585,0,1933623,3,6585,-0,5720302,0,2814231,5,539025E-06,3,6585,-0,9990387,3,6585,0,01208515,3,6585,-0,3786679
0,2819423,1,15816E-05,3,66525,-0,7694209,3,66525,0,2175326,3,66525,-0,559945,0,2819423,8,392462E-06,3,66525,-0,9950103,3,66525,0,02014191,3,66525,-0,3544976
0,2824616,1,258869E-05,3,672,-0,8419318,3,672,0,2618448,3,672,-0,5398031,0,2824616,8,560311E-06,3,672,-1,007095,3,672,0,004028382,3,672,-0,3504692
0,2829808,1,309224E-05,3,67875,-0,8983291,3,67875,0,2578164,3,67875,-0,5478599,0,2829808,9,567407E-06,3,67875,-1,007095,3,67875,0,3,67875,-0,3544976
0,2835,1,292439E-05,3,6855,-0,8943007,3,6855,0,221561,3,6855,-0,6203707,0,2835,1,05745E-05,3,6855,-1,007095,3,6855,0,004028382,3,6855,-0,3867247
0,2840192,1,19173E-05,3,69225,-0,8499885,3,69225,0,1611353,3,69225,-0,6566262,0,2840192,1,05745E-05,3,69225,-0,9990387,3,69225,0,01208515,3,69225,-0,4108949
0,2845385,1,15816E-05,3,699,-0,7855344,3,699,0,1007095,3,699,-0,6324559,0,2845385,8,89601E-06,3,699,-0,9587549,3,699,0,02014191,3,699,-0,4310368
0,2850577,1,174945E-05,3,70575,-0,7291371,3,70575,0,0886244,3,70575,-0,5921721,0,2850577,7,553216E-06,3,70575,-0,9265279,3,70575,0,008056764,3,70575,-0,4270085
0,2855769,1,19173E-05,3,7125,-0,69691,3,7125,0,1289082,3,7125,-0,5921721,0,2855769,7,385367E-06,3,7125,-0,9063858,3,7125,-0,01611353,3,7125,-0,4108949
0,2860962,1,225299E-05,3,71925,-0,7089952,3,71925,0,1732204,3,71925,-0,6042572,0,2860962,5,203327E-06,3,71925,-0,9144427,3,71925,-0,0443122,3,71925,-0,4068666
0,2866154,1,326009E-05,3,726,-0,7613642,3,726,0,2537881,3,726,-0,5518883,0,2866154,3,189135E-06,3,726,-0,9466697,3,726,-0,04028382,3,726,-0,4189517
0,2871346,1,376364E-05,3,73275,-0,8419318,3,73275,0,3101854,3,73275,-0,4874342,0,2871346,4,196231E-06,3,73275,-0,9909819,3,73275,0,01208515,3,73275,-0,4390936
0,2876539,1,342794E-05,3,7395,-0,9063858,3,7395,0,3464408,3,7395,-0,4874342,0,2876539,5,874724E-06,3,7395,-1,023209,3,7395,0,07653925,3,7395,-0,4552071
0,2881731,1,393149E-05,3,74625,-0,9184711,3,74625,0,3262989,3,74625,-0,5639734,0,2881731,7,553216E-06,3,74625,-1,051408,3,74625,0,1329366,3,74625,-0,4592355
0,2886923,1,477073E-05,3,753,-0,8983291,3,753,0,2900435,3,753,-0,6525978,0,2886923,1,02388E-05,3,753,-1,047379,3,753,0,1450217,3,753,-0,4672923
0,2892115,1,460288E-05,3,75975,-0,8540169,3,75975,0,2658732,3,75975,-0,7009384,0,2892115,8,560311E-06,3,75975,-1,035294,3,75975,0,1047379,3,75975,-0,4471503
0,2897308,1,426719E-05,3,7665,-0,8097047,3,7665,0,2336462,3,7665,-0,6928816,0,2897308,5,203327E-06,3,7665,-1,015152,3,7665,0,06445411,3,7665,-0,4310368
0,29025,1,443503E-05,3,77325,-0,7815061,3,77325,0,2094758,3,77325,-0,6243992,0,29025,6,54612E-06,3,77325,-0,9909819,3,77325,0,02819867,3,77325,-0,3947814
0,2907692,1,393149E-05,3,78,-0,7774777,3,78,0,2457313,3,78,-0,5720302,0,2907692,1,02388E-05,3,78,-0,9668117,3,78,0,02417029,3,78,-0,3625543
0,2912885,1,19173E-05,3,78675,-0,7774777,3,78675,0,3182422,3,78675,-0,559945,0,2912885,1,326009E-05,3,78675,-0,97084,3,78675,0,02014191,3,78675,-0,358526
0,2918077,1,12459E-05,3,7935,-0,7774777,3,7935,0,3625543,3,7935,-0,5398031,0,2918077,1,493858E-05,3,7935,-0,9547265,3,7935,0,004028382,3,7935,-0,3665827
0,2923269,1,242084E-05,3,80025,-0,8056763,3,80025,0,3544976,3,80025,-0,5075761,0,2923269,1,393149E-05,3,80025,-0,9506981,3,80025,-0,02417029,3,80025,-0,3947814
0,2928461,1,292439E-05,3,807,-0,8258182,3,807,0,3182422,3,807,-0,5075761,0,2928461,1,19173E-05,3,807,-0,9627832,3,807,-0,0443122,3,807,-0,4189517
0,2933654,1,258869E-05,3,81375,-0,8177615,3,81375,0,2618448,3,81375,-0,5559167,0,2933654,1,12459E-05,3,81375,-0,9788967,3,81375,-0,04028382,3,81375,-0,4068666
0,2938846,1,12459E-05,3,8205,-0,7895628,3,8205,0,1933623,3,8205,-0,5881437,0,2938846,1,040665E-05,3,8205,-0,9788967,3,8205,-0,02417029,3,8205,-0,3746395
0,2944039,1,05745E-05,3,82725,-0,7734493,3,82725,0,1450217,3,82725,-0,6002288,0,2944039,1,05745E-05,3,82725,-0,9668117,3,82725,-0,01611353,3,82725,-0,3262989
0,2949231,1,15816E-05,3,834,-0,7452506,3,834,0,1208515,3,834,-0,5720302,0,2949231,1,12459E-05,3,834,-0,9587549,3,834,-0,04028382,3,834,-0,2900435
0,2954423,1,19173E-05,3,84075,-0,7331654,3,84075,0,1168231,3,84075,-0,5317464,0,2954423,9,063859E-06,3,84075,-0,9466697,3,84075,-0,06848249,3,84075,-0,2940719
0,2959615,1,141375E-05,3,8475,-0,7613642,3,8475,0,1168231,3,8475,-0,5317464,0,2959615,5,539025E-06,3,8475,-0,9627832,3,8475,-0,09668116,3,8475,-0,3142138
0,2964808,9,903106E-06,3,85425,-0,7976196,3,85425,0,1289082,3,85425,-0,5398031,0,2964808,4,196231E-06,3,85425,-0,9829252,3,85425,-0,1087663,3,85425,-0,3383841
0,297,9,903106E-06,3,861,-0,833875,3,861,0,1812772,3,861,-0,5639734,0,297,4,36408E-06,3,861,-1,011124,3,861,-0,1007095,3,861,-0,3746395
0,2975192,1,007095E-05,3,86775,-0,8540169,3,86775,0,2618448,3,86775,-0,5841153,0,2975192,6,881819E-06,3,86775,-1,023209,3,86775,-0,06042573,3,86775,-0,4108949
0,2980385,8,560311E-06,3,8745,-0,8419318,3,8745,0,3262989,3,8745,-0,6163424,0,2980385,9,231708E-06,3,8745,-1,007095,3,8745,-0,01208515,3,8745,-0,4552071
0,2985577,8,392462E-06,3,88125,-0,8097047,3,88125,0,3262989,3,88125,-0,6203707,0,2985577,8,89601E-06,3,88125,-0,9788967,3,88125,0,01208515,3,88125,-0,4672923
0,2990769,9,735257E-06,3,888,-0,7653925,3,888,0,2981002,3,888,-0,5881437,0,2990769,7,217517E-06,3,888,-0,9547265,3,888,0,004028382,3,888,-0,4632639
0,2995962,1,02388E-05,3,89475,-0,7331654,3,89475,0,2779583,3,89475,-0,5398031,0,2995962,4,867628E-06,3,89475,-0,9345846,3,89475,-0,01208515,3,89475,-0,4511787
0,3001154,9,903106E-06,3,9015,-0,7130235,3,9015,0,2819867,3,9015,-0,5035477,0,3001154,4,867628E-06,3,9015,-0,9345846,3,9015,-0,02014191,3,9015,-0,4229801
0,3006346,1,05745E-05,3,90825,-0,7371938,3,90825,0,2537881,3,90825,-0,5075761,0,3006346,7,721065E-06,3,90825,-0,9426414,3,90825,-0,02417029,3,90825,-0,4108949
0,3011538,1,225299E-05,3,915,-0,7855344,3,915,0,1933623,3,915,-0,527718,0,3011538,1,15816E-05,3,915,-0,97084,3,915,-0,03222705,3,915,-0,4189517
0,3016731,1,141375E-05,3,92175,-0,8298466,3,92175,0,136965,3,92175,-0,5680018,0,3016731,1,208515E-05,3,92175,-0,9748684,3,92175,-0,02014191,3,92175,-0,4350652
0,3021923,9,735257E-06,3,9285,-0,866102,3,9285,0,09668116,3,9285,-0,6364843,0,3021923,1,09102E-05,3,9285,-0,9869535,3,9285,0,3,9285,-0,4310368
0,3027115,9,063859E-06,3,93525,-0,8943007,3,93525,0,08459602,3,93525,-0,6606546,0,3027115,8,224613E-06,3,93525,-0,9829252,3,93525,0,02417029,3,93525,-0,3947814
0,3032308,1,02388E-05,3,942,-0,8862439,3,942,0,1208515,3,942,-0,6445411,0,3032308,7,217517E-06,3,942,-0,9788967,3,942,0,0443122,3,942,-0,358526
0,30375,1,05745E-05,3,94875,-0,8580453,3,94875,0,2094758,3,94875,-0,6203707,0,30375,7,217517E-06,3,94875,-0,9788967,3,94875,0,05639734,3,94875,-0,3182422
0,3042692,9,903106E-06,3,9555,-0,8137331,3,9555,0,3303273,3,9555,-0,6082856,0,3042692,8,224613E-06,3,9555,-0,9668117,3,9555,0,04834058,3,9555,-0,3021286
0,3047885,8,560311E-06,3,96225,-0,7815061,3,96225,0,4310368,3,96225,-0,6002288,0,3047885,9,735257E-06,3,96225,-0,97084,3,96225,0,02014191,3,96225,-0,2981002
0,3053077,8,560311E-06,3,969,-0,7653925,3,969,0,4914626,3,969,-0,5680018,0,3053077,1,02388E-05,3,969,-0,9748684,3,969,-0,01611353,3,969,-0,3101854
0,3058269,1,05745E-05,3,97575,-0,7573358,3,97575,0,5035477,3,97575,-0,5398031,0,3058269,1,09102E-05,3,97575,-0,97084,3,97575,-0,06445411,3,97575,-0,3464408
0,3063461,1,393149E-05,3,9825,-0,7533074,3,9825,0,4229801,3,9825,-0,5518883,0,3063461,1,15816E-05,3,9825,-0,9829252,3,9825,-0,0886244,3,9825,-0,390753
0,3068654,1,460288E-05,3,98925,-0,7412222,3,98925,0,306157,3,98925,-0,5921721,0,3068654,1,275654E-05,3,98925,-0,97084,3,98925,-0,09265278,3,98925,-0,4189517
0,3073846,1,225299E-05,3,996,-0,7452506,3,996,0,1812772,3,996,-0,6042572,0,3073846,1,359579E-05,3,996,-0,9466697,3,996,-0,1047379,3,996,-0,4270085
0,3079039,1,007095E-05,4,00275,-0,7452506,4,00275,0,08459602,4,00275,-0,5639734,0,3079039,1,309224E-05,4,00275,-0,9345846,4,00275,-0,1007095,4,00275,-0,4149233
0,3084231,1,19173E-05,4,0095,-0,7694209,4,0095,0,04028382,4,0095,-0,5398031,0,3084231,1,258869E-05,4,0095,-0,9305562,4,0095,-0,09265278,4,0095,-0,3988098
0,3089423,1,460288E-05,4,01625,-0,7976196,4,01625,0,05236896,4,01625,-0,559945,0,3089423,1,258869E-05,4,01625,-0,9506981,4,01625,-0,09668116,4,01625,-0,3867247
0,3094615,1,443503E-05,4,023,-0,8217899,4,023,0,1208515,4,023,-0,5921721,0,3094615,1,258869E-05,4,023,-0,97084,4,023,-0,0886244,4,023,-0,3746395
0,3099808,1,309224E-05,4,02975,-0,8298466,4,02975,0,1973907,4,02975,-0,6163424,0,3099808,8,728161E-06,4,02975,-0,9869535,4,02975,-0,07653925,4,02975,-0,3786679
0,3105,1,292439E-05,4,0365,-0,8419318,4,0365,0,2296178,4,0365,-0,6042572,0,3105,5,203327E-06,4,0365,-0,9950103,4,0365,-0,06848249,4,0365,-0,4068666
0,3110192,1,258869E-05,4,04325,-0,8419318,4,04325,0,221561,4,04325,-0,6042572,0,3110192,5,874724E-06,4,04325,-0,9950103,4,04325,-0,05236896,4,04325,-0,4310368
0,3115385,1,174945E-05,4,05,-0,8137331,4,05,0,2094758,4,05,-0,6203707,0,3115385,6,54612E-06,4,05,-0,9950103,4,05,-0,04834058,4,05,-0,4350652
0,3120577,1,05745E-05,4,05675,-0,7815061,4,05675,0,2255894,4,05675,-0,6485695,0,3120577,8,560311E-06,4,05675,-0,9909819,4,05675,-0,02819867,4,05675,-0,4229801
0,3125769,1,05745E-05,4,0635,-0,7734493,4,0635,0,2658732,4,0635,-0,6203707,0,3125769,1,19173E-05,4,0635,-0,9829252,4,0635,-0,02417029,4,0635,-0,4149233
0,3130962,1,409934E-05,4,07025,-0,7653925,4,07025,0,3142138,4,07025,-0,5760586,0,3130962,1,326009E-05,4,07025,-0,9788967,4,07025,-0,01208515,4,07025,-0,4028382
0,3136154,1,728847E-05,4,077,-0,7613642,4,077,0,3504692,4,077,-0,5921721,0,3136154,1,342794E-05,4,077,-0,9829252,4,077,-0,01611353,4,077,-0,4028382
0,3141346,1,628138E-05,4,08375,-0,7694209,4,08375,0,3544976,4,08375,-0,6324559,0,3141346,1,258869E-05,4,08375,-0,9829252,4,08375,0,4,08375,-0,4028382
0,3146538,1,493858E-05,4,0905,-0,7774777,4,0905,0,3424124,4,0905,-0,6566262,0,3146538,1,326009E-05,4,0905,-0,9788967,4,0905,-0,004028382,4,0905,-0,4068666
0,3151731,1,326009E-05,4,09725,-0,7895628,4,09725,0,3464408,4,09725,-0,6485695,0,3151731,1,477073E-05,4,09725,-0,97084,4,09725,-0,01208515,4,09725,-0,4108949
0,3156923,1,292439E-05,4,104,-0,801648,4,104,0,3262989,4,104,-0,6203707,0,3156923,1,326009E-05,4,104,-0,9748684,4,104,-0,03625543,4,104,-0,4108949
0,3162116,1,19173E-05,4,11075,-0,8258182,4,11075,0,27393,4,11075,-0,5720302,0,3162116,9,903106E-06,4,11075,-0,9829252,4,11075,-0,05236896,4,11075,-0,3988098
0,3167308,1,15816E-05,4,1175,-0,8580453,4,1175,0,1893339,4,1175,-0,559945,0,3167308,8,560311E-06,4,1175,-0,9990387,4,1175,-0,0886244,4,1175,-0,390753
0,31725,1,275654E-05,4,12425,-0,8822156,4,12425,0,1168231,4,12425,-0,5720302,0,31725,7,888914E-06,4,12425,-1,031266,4,12425,-0,1007095,4,12425,-0,3826963
0,3177692,1,426719E-05,4,131,-0,8902723,4,131,0,06848249,4,131,-0,6203707,0,3177692,8,728161E-06,4,131,-1,055436,4,131,-0,09668116,4,131,-0,3867247
0,3182885,1,560998E-05,4,13775,-0,8701304,4,13775,0,06445411,4,13775,-0,6485695,0,3182885,1,225299E-05,4,13775,-1,055436,4,13775,-0,09668116,4,13775,-0,4028382
0,3188077,1,527428E-05,4,1445,-0,8419318,4,1445,0,1007095,4,1445,-0,6687114,0,3188077,1,409934E-05,4,1445,-1,031266,4,1445,-0,08056764,4,1445,-0,4149233
0,3193269,1,426719E-05,4,15125,-0,8177615,4,15125,0,169192,4,15125,-0,6767681,0,3193269,1,15816E-05,4,15125,-1,011124,4,15125,-0,08056764,4,15125,-0,4310368
0,3198462,1,393149E-05,4,158,-0,7895628,4,158,0,2417029,4,158,-0,6727397,0,3198462,9,231708E-06,4,158,-1,003067,4,158,-0,08459602,4,158,-0,4350652
0,3203654,1,393149E-05,4,16475,-0,7774777,4,16475,0,2940719,4,16475,-0,6525978,0,3203654,9,567407E-06,4,16475,-0,9788967,4,16475,-0,06042573,4,16475,-0,4350652
0,3208846,1,376364E-05,4,1715,-0,7694209,4,1715,0,3101854,4,1715,-0,6324559,0,3208846,1,19173E-05,4,1715,-0,9748684,4,1715,-0,05639734,4,1715,-0,4310368
0,3214039,1,326009E-05,4,17825,-0,7734493,4,17825,0,3101854,4,17825,-0,6284276,0,3214039,1,19173E-05,4,17825,-0,9668117,4,17825,-0,05639734,4,17825,-0,4189517
0,3219231,1,326009E-05,4,185,-0,7895628,4,185,0,3101854,4,185,-0,6364843,0,3219231,9,567407E-06,4,185,-0,97084,4,185,-0,05639734,4,185,-0,4108949
0,3224423,1,225299E-05,4,19175,-0,8056763,4,19175,0,3182422,4,19175,-0,6284276,0,3224423,9,567407E-06,4,19175,-0,97084,4,19175,-0,06445411,4,19175,-0,4068666
0,3229615,1,02388E-05,4,1985,-0,8056763,4,1985,0,3182422,4,1985,-0,6163424,0,3229615,8,89601E-06,4,1985,-0,97084,4,1985,-0,06848249,4,1985,-0,4028382
0,3234808,9,063859E-06,4,20525,-0,8137331,4,20525,0,2618448,4,20525,-0,5962005,0,3234808,7,049668E-06,4,20525,-0,9668117,4,20525,-0,06445411,4,20525,-0,4108949
0,324,9,231708E-06,4,212,-0,8097047,4,212,0,1812772,4,212,-0,5921721,0,324,8,224613E-06,4,212,-0,9748684,4,212,-0,06445411,4,212,-0,4189517
0,3245192,9,903106E-06,4,21875,-0,801648,4,21875,0,1047379,4,21875,-0,5921721,0,3245192,9,399557E-06,4,21875,-0,97084,4,21875,-0,04834058,4,21875,-0,4149233
0,3250385,9,567407E-06,4,2255,-0,8097047,4,2255,0,06848249,4,2255,-0,612314,0,3250385,6,54612E-06,4,2255,-0,9788967,4,2255,-0,04028382,4,2255,-0,4229801
0,3255577,9,231708E-06,4,23225,-0,8097047,4,23225,0,06848249,4,23225,-0,6364843,0,3255577,6,042573E-06,4,23225,-0,9748684,4,23225,-0,04028382,4,23225,-0,4229801
0,3260769,9,231708E-06,4,239,-0,8177615,4,239,0,07653925,4,239,-0,6525978,0,3260769,7,888914E-06,4,239,-0,97084,4,239,-0,03625543,4,239,-0,4270085
0,3265962,1,02388E-05,4,24575,-0,8137331,4,24575,0,1168231,4,24575,-0,664683,0,3265962,9,231708E-06,4,24575,-0,9788967,4,24575,-0,02819867,4,24575,-0,4310368
0,3271154,1,02388E-05,4,2525,-0,8217899,4,2525,0,1853056,4,2525,-0,6566262,0,3271154,9,903106E-06,4,2525,-0,9788967,4,2525,-0,01611353,4,2525,-0,4270085
0,3276346,1,12459E-05,4,25925,-0,8217899,4,25925,0,2699016,4,25925,-0,6525978,0,3276346,9,063859E-06,4,25925,-0,9748684,4,25925,-0,004028382,4,25925,-0,4229801
0,3281538,1,19173E-05,4,266,-0,8056763,4,266,0,3424124,4,266,-0,6606546,0,3281538,7,888914E-06,4,266,-0,9627832,4,266,0,004028382,4,266,-0,4229801
0,3286731,1,007095E-05,4,27275,-0,7895628,4,27275,0,3867247,4,27275,-0,6364843,0,3286731,8,224613E-06,4,27275,-0,9506981,4,27275,0,004028382,4,27275,-0,4270085
0,3291923,7,217517E-06,4,2795,-0,7935912,4,2795,0,3706111,4,2795,-0,6042572,0,3291923,8,728161E-06,4,2795,-0,9345846,4,2795,0,008056764,4,2795,-0,4149233
0,3297116,7,385367E-06,4,28625,-0,7976196,4,28625,0,3021286,4,28625,-0,5881437,0,3297116,6,54612E-06,4,28625,-0,9224994,4,28625,0,01208515,4,28625,-0,3988098
0,3302308,9,735257E-06,4,293,-0,8097047,4,293,0,2135042,4,293,-0,5921721,0,3302308,5,035477E-06,4,293,-0,9224994,4,293,0,004028382,4,293,-0,3786679
0,33075,1,12459E-05,4,29975,-0,8177615,4,29975,0,169192,4,29975,-0,5962005,0,33075,5,035477E-06,4,29975,-0,9426414,4,29975,0,4,29975,-0,3544976
0,3312692,9,903106E-06,4,3065,-0,8298466,4,3065,0,1651637,4,3065,-0,5962005,0,3312692,6,042573E-06,4,3065,-0,9627832,4,3065,-0,01208515,4,3065,-0,3424124
0,3317885,8,224613E-06,4,31325,-0,8419318,4,31325,0,1772488,4,31325,-0,5881437,0,3317885,8,560311E-06,4,31325,-0,9990387,4,31325,-0,02014191,4,31325,-0,3303273
0,3323077,8,224613E-06,4,32,-0,8540169,4,32,0,1973907,4,32,-0,5760586,0,3323077,1,007095E-05,4,32,-1,027237,4,32,-0,03625543,4,32,-0,3262989
0,3328269,9,903106E-06,4,32675,-0,866102,4,32675,0,221561,4,32675,-0,5518883,0,3328269,9,231708E-06,4,32675,-1,055436,4,32675,-0,05639734,4,32675,-0,3142138
0,3333462,9,567407E-06,4,3335,-0,866102,4,3335,0,2336462,4,3335,-0,5317464,0,3333462,6,881819E-06,4,3335,-1,075578,4,3335,-0,08459602,4,3335,-0,3182422
0,3338654,8,89601E-06,4,34025,-0,8540169,4,34025,0,2336462,4,34025,-0,5357748,0,3338654,4,867628E-06,4,34025,-1,063493,4,34025,-0,1007095,4,34025,-0,3222705
0,3343846,9,231708E-06,4,347,-0,8217899,4,347,0,2175326,4,347,-0,5760586,0,3343846,3,524834E-06,4,347,-1,043351,4,347,-0,1087663,4,347,-0,3343557
0,3349038,7,721065E-06,4,35375,-0,7935912,4,35375,0,2014191,4,35375,-0,6203707,0,3349038,6,210422E-06,4,35375,-1,007095,4,35375,-0,09668116,4,35375,-0,3504692
0,3354231,7,553216E-06,4,3605,-0,7734493,4,3605,0,1651637,4,3605,-0,6525978,0,3354231,9,231708E-06,4,3605,-0,9627832,4,3605,-0,08056764,4,3605,-0,3625543
0,3359423,9,903106E-06,4,36725,-0,7734493,4,36725,0,1127947,4,36725,-0,6525978,0,3359423,1,05745E-05,4,36725,-0,9305562,4,36725,-0,04834058,4,36725,-0,3786679
0,3364615,1,09102E-05,4,374,-0,7976196,4,374,0,08459602,4,374,-0,6243992,0,3364615,1,05745E-05,4,374,-0,9104142,4,374,-0,008056764,4,374,-0,4028382
0,3369808,1,12459E-05,4,38075,-0,8217899,4,38075,0,09668116,4,38075,-0,6002288,0,3369808,9,231708E-06,4,38075,-0,9184711,4,38075,0,01208515,4,38075,-0,4189517
0,3375,1,15816E-05,4,3875,-0,8419318,4,3875,0,1571069,4,3875,-0,5800869,0,3375,8,728161E-06,4,3875,-0,9265279,4,3875,0,04028382,4,3875,-0,443122
0,3380192,1,12459E-05,4,39425,-0,8379034,4,39425,0,2376745,4,39425,-0,5921721,0,3380192,9,903106E-06,4,39425,-0,9466697,4,39425,0,05236896,4,39425,-0,4552071
0,3385385,1,12459E-05,4,401,-0,8177615,4,401,0,306157,4,401,-0,6082856,0,3385385,9,903106E-06,4,401,-0,9627832,4,401,0,05236896,4,401,-0,4471503
0,3390577,1,007095E-05,4,40775,-0,7976196,4,40775,0,3504692,4,40775,-0,6042572,0,3390577,8,89601E-06,4,40775,-0,9788967,4,40775,0,04028382,4,40775,-0,4189517
0,3395769,9,231708E-06,4,4145,-0,7895628,4,4145,0,3544976,4,4145,-0,5841153,0,3395769,6,881819E-06,4,4145,-0,9788967,4,4145,0,02417029,4,4145,-0,3826963
0,3400961,1,05745E-05,4,42125,-0,7895628,4,42125,0,3222705,4,42125,-0,559945,0,3400961,6,378271E-06,4,42125,-0,9950103,4,42125,0,01208515,4,42125,-0,3464408
0,3406154,1,242084E-05,4,428,-0,801648,4,428,0,2578164,4,428,-0,5438315,0,3406154,7,888914E-06,4,428,-0,9950103,4,428,-0,004028382,4,428,-0,3142138
0,3411346,1,15816E-05,4,43475,-0,8177615,4,43475,0,2054475,4,43475,-0,5559167,0,3411346,9,567407E-06,4,43475,-0,9990387,4,43475,-0,01611353,4,43475,-0,2940719
0,3416539,1,02388E-05,4,4415,-0,8258182,4,4415,0,1732204,4,4415,-0,5800869,0,3416539,1,09102E-05,4,4415,-1,003067,4,4415,-0,03222705,4,4415,-0,2819867
0,3421731,8,728161E-06,4,44825,-0,8298466,4,44825,0,1490501,4,44825,-0,6082856,0,3421731,1,225299E-05,4,44825,-0,9950103,4,44825,-0,03222705,4,44825,-0,2860151
0,3426923,8,224613E-06,4,455,-0,833875,4,455,0,1409934,4,455,-0,6364843,0,3426923,1,12459E-05,4,455,-0,9990387,4,455,-0,03222705,4,455,-0,3021286
0,3432115,9,567407E-06,4,46175,-0,8258182,4,46175,0,1571069,4,46175,-0,6445411,0,3432115,8,392462E-06,4,46175,-0,9909819,4,46175,-0,02417029,4,46175,-0,3142138
0,3437308,1,12459E-05,4,4685,-0,8177615,4,4685,0,1893339,4,4685,-0,6163424,0,3437308,5,874724E-06,4,4685,-0,9909819,4,4685,-0,03625543,4,4685,-0,3464408
0,34425,1,258869E-05,4,47525,-0,8097047,4,47525,0,221561,4,47525,-0,5881437,0,34425,6,54612E-06,4,47525,-0,9788967,4,47525,-0,05236896,4,47525,-0,3706111
0,3447692,1,174945E-05,4,482,-0,8097047,4,482,0,2336462,4,482,-0,5720302,0,3447692,9,231708E-06,4,482,-0,97084,4,482,-0,06042573,4,482,-0,3947814
0,3452885,9,567407E-06,4,48875,-0,8056763,4,48875,0,2296178,4,48875,-0,5680018,0,3452885,1,12459E-05,4,48875,-0,9748684,4,48875,-0,06042573,4,48875,-0,4108949
0,3458077,8,560311E-06,4,4955,-0,8056763,4,4955,0,2135042,4,4955,-0,5841153,0,3458077,1,007095E-05,4,4955,-0,9829252,4,4955,-0,0443122,4,4955,-0,4189517
0,3463269,1,09102E-05,4,50225,-0,8137331,4,50225,0,1933623,4,50225,-0,6082856,0,3463269,6,210422E-06,4,50225,-0,9869535,4,50225,-0,02819867,4,50225,-0,4108949
0,3468462,1,326009E-05,4,509,-0,8298466,4,509,0,1772488,4,509,-0,6243992,0,3468462,4,867628E-06,4,509,-0,9909819,4,509,-0,004028382,4,509,-0,3947814
0,3473654,1,577783E-05,4,51575,-0,833875,4,51575,0,2014191,4,51575,-0,6203707,0,3473654,7,888914E-06,4,51575,-0,9829252,4,51575,0,004028382,4,51575,-0,3625543
0,3478846,1,594568E-05,4,5225,-0,8419318,4,5225,0,2336462,4,5225,-0,6042572,0,3478846,9,399557E-06,4,5225,-0,9950103,4,5225,0,4,5225,-0,3424124
0,3484038,1,326009E-05,4,52925,-0,8298466,4,52925,0,27393,4,52925,-0,5760586,0,3484038,9,231708E-06,4,52925,-1,007095,4,52925,-0,008056764,4,52925,-0,3182422
0,3489231,1,19173E-05,4,536,-0,833875,4,536,0,2900435,4,536,-0,5680018,0,3489231,7,553216E-06,4,536,-1,015152,4,536,-0,02819867,4,536,-0,2981002
0,3494423,1,275654E-05,4,54275,-0,8298466,4,54275,0,2981002,4,54275,-0,5478599,0,3494423,7,217517E-06,4,54275,-1,027237,4,54275,-0,04028382,4,54275,-0,2900435
0,3499615,1,393149E-05,4,5495,-0,833875,4,5495,0,2658732,4,5495,-0,5478599,0,3499615,8,89601E-06,4,5495,-1,027237,4,5495,-0,04834058,4,5495,-0,2860151
0,3504808,1,443503E-05,4,55625,-0,833875,4,55625,0,221561,4,55625,-0,5639734,0,3504808,8,89601E-06,4,55625,-1,027237,4,55625,-0,04028382,4,55625,-0,2981002
0,351,1,460288E-05,4,563,-0,8298466,4,563,0,1450217,4,563,-0,5962005,0,351,7,888914E-06,4,563,-1,007095,4,563,-0,02819867,4,563,-0,3142138
0,3515192,1,326009E-05,4,56975,-0,8298466,4,56975,0,07251087,4,56975,-0,6243992,0,3515192,7,217517E-06,4,56975,-0,9829252,4,56975,-0,004028382,4,56975,-0,3383841
0,3520385,1,225299E-05,4,5765,-0,8217899,4,5765,0,05236896,4,5765,-0,6284276,0,3520385,6,71397E-06,4,5765,-0,9627832,4,5765,0,01208515,4,5765,-0,3665827
0,3525577,1,05745E-05,4,58325,-0,801648,4,58325,0,09265278,4,58325,-0,6163424,0,3525577,8,728161E-06,4,58325,-0,9587549,4,58325,0,02014191,4,58325,-0,3867247
0,3530769,1,107805E-05,4,59,-0,7815061,4,59,0,1409934,4,59,-0,6082856,0,3530769,8,89601E-06,4,59,-0,9426414,4,59,0,03222705,4,59,-0,4108949
0,3535962,1,19173E-05,4,59675,-0,7734493,4,59675,0,1812772,4,59675,-0,5962005,0,3535962,5,874724E-06,4,59675,-0,9426414,4,59675,0,03222705,4,59675,-0,4270085
0,3541154,1,242084E-05,4,6035,-0,7976196,4,6035,0,1973907,4,6035,-0,5962005,0,3541154,4,36408E-06,4,6035,-0,9829252,4,6035,0,04028382,4,6035,-0,4471503
0,3546346,1,225299E-05,4,61025,-0,8177615,4,61025,0,2175326,4,61025,-0,6042572,0,3546346,4,36408E-06,4,61025,-1,031266,4,61025,0,0443122,4,61025,-0,4390936
0,3551539,1,12459E-05,4,617,-0,8177615,4,617,0,2457313,4,617,-0,6002288,0,3551539,6,881819E-06,4,617,-1,031266,4,617,0,02819867,4,617,-0,4270085
0,3556731,8,392462E-06,4,62375,-0,8258182,4,62375,0,2618448,4,62375,-0,6082856,0,3556731,9,903106E-06,4,62375,-0,9990387,4,62375,0,004028382,4,62375,-0,390753
0,3561923,5,203327E-06,4,6305,-0,8258182,4,6305,0,2537881,4,6305,-0,6284276,0,3561923,1,02388E-05,4,6305,-0,9748684,4,6305,-0,02014191,4,6305,-0,3665827
0,3567115,6,378271E-06,4,63725,-0,8177615,4,63725,0,2417029,4,63725,-0,6606546,0,3567115,8,89601E-06,4,63725,-0,9587549,4,63725,-0,02417029,4,63725,-0,3424124
0,3572308,9,735257E-06,4,644,-0,7935912,4,644,0,2296178,4,644,-0,6727397,0,3572308,7,049668E-06,4,644,-0,9668117,4,644,-0,01208515,4,644,-0,3343557
0,35775,9,903106E-06,4,65075,-0,7774777,4,65075,0,2094758,4,65075,-0,6606546,0,35775,5,874724E-06,4,65075,-0,97084,4,65075,-0,004028382,4,65075,-0,3262989
0,3582692,7,049668E-06,4,6575,-0,7653925,4,6575,0,1853056,4,6575,-0,6324559,0,3582692,5,035477E-06,4,6575,-0,9829252,4,6575,-0,01611353,4,6575,-0,3424124
0,3587885,4,196231E-06,4,66425,-0,7694209,4,66425,0,169192,4,66425,-0,612314,0,3587885,4,531929E-06,4,66425,-0,9869535,4,66425,-0,03222705,4,66425,-0,3706111
0,3593077,3,860533E-06,4,671,-0,7815061,4,671,0,1732204,4,671,-0,6203707,0,3593077,4,699778E-06,4,671,-0,9990387,4,671,-0,0443122,4,671,-0,4068666
0,3598269,7,217517E-06,4,67775,-0,8097047,4,67775,0,1772488,4,67775,-0,6284276,0,3598269,4,36408E-06,4,67775,-1,011124,4,67775,-0,06042573,4,67775,-0,4270085
0,3603462,9,735257E-06,4,6845,-0,8419318,4,6845,0,1772488,4,6845,-0,6364843,0,3603462,3,356985E-06,4,6845,-1,015152,4,6845,-0,06848249,4,6845,-0,4471503
0,3608654,1,05745E-05,4,69125,-0,8620737,4,69125,0,1853056,4,69125,-0,6284276,0,3608654,2,853437E-06,4,69125,-1,011124,4,69125,-0,05236896,4,69125,-0,4471503
0,3613846,1,225299E-05,4,698,-0,866102,4,698,0,1933623,4,698,-0,6284276,0,3613846,3,524834E-06,4,698,-1,015152,4,698,-0,03222705,4,698,-0,443122
0,3619038,1,326009E-05,4,70475,-0,8620737,4,70475,0,1933623,4,70475,-0,6243992,0,3619038,5,203327E-06,4,70475,-1,015152,4,70475,-0,02819867,4,70475,-0,4270085
0,3624231,1,460288E-05,4,7115,-0,8459601,4,7115,0,2014191,4,7115,-0,6284276,0,3624231,7,049668E-06,4,7115,-1,019181,4,7115,-0,02417029,4,7115,-0,4149233
0,3629423,1,527428E-05,4,71825,-0,8217899,4,71825,0,2135042,4,71825,-0,6364843,0,3629423,6,881819E-06,4,71825,-1,015152,4,71825,-0,008056764,4,71825,-0,4149233
0,3634616,1,527428E-05,4,725,-0,8056763,4,725,0,2094758,4,725,-0,6566262,0,3634616,6,54612E-06,4,725,-1,007095,4,725,0,02014191,4,725,-0,4028382
0,3639808,1,326009E-05,4,73175,-0,8097047,4,73175,0,2094758,4,73175,-0,6687114,0,3639808,6,210422E-06,4,73175,-0,9990387,4,73175,0,0443122,4,73175,-0,3988098
0,3645,1,174945E-05,4,7385,-0,8177615,4,7385,0,2014191,4,7385,-0,6727397,0,3645,3,189135E-06,4,7385,-0,9909819,4,7385,0,07251087,4,7385,-0,3826963
0,3650192,1,19173E-05,4,74525,-0,8217899,4,74525,0,2336462,4,74525,-0,6767681,0,3650192,1,846342E-06,4,74525,-0,9788967,4,74525,0,07653925,4,74525,-0,3786679
0,3655385,1,208515E-05,4,752,-0,8379034,4,752,0,2860151,4,752,-0,664683,0,3655385,1,007096E-06,4,752,-0,9748684,4,752,0,06042573,4,752,-0,3826963
0,3660577,1,12459E-05,4,75875,-0,8217899,4,75875,0,3303273,4,75875,-0,6445411,0,3660577,1,678492E-06,4,75875,-0,9668117,4,75875,0,03222705,4,75875,-0,390753
0,3665769,1,02388E-05,4,7655,-0,801648,4,7655,0,3504692,4,7655,-0,6163424,0,3665769,4,196231E-06,4,7655,-0,9587549,4,7655,-0,01611353,4,7655,-0,390753
0,3670962,1,141375E-05,4,77225,-0,7895628,4,77225,0,3303273,4,77225,-0,5881437,0,3670962,4,699778E-06,4,77225,-0,9627832,4,77225,-0,06445411,4,77225,-0,3947814
0,3676154,1,174945E-05,4,779,-0,7855344,4,779,0,2699016,4,779,-0,5720302,0,3676154,3,860533E-06,4,779,-0,9668117,4,779,-0,1047379,4,779,-0,3988098
0,3681346,1,02388E-05,4,78575,-0,7895628,4,78575,0,1853056,4,78575,-0,5680018,0,3681346,5,203327E-06,4,78575,-0,9829252,4,78575,-0,1289082,4,78575,-0,3786679
0,3686539,9,567407E-06,4,7925,-0,7895628,4,7925,0,1007095,4,7925,-0,5720302,0,3686539,9,231708E-06,4,7925,-0,9748684,4,7925,-0,1208515,4,7925,-0,3746395
0,3691731,8,392462E-06,4,79925,-0,7976196,4,79925,0,05639734,4,79925,-0,5881437,0,3691731,1,09102E-05,4,79925,-0,9668117,4,79925,-0,1007095,4,79925,-0,3665827
0,3696923,8,89601E-06,4,806,-0,7976196,4,806,0,05639734,4,806,-0,6203707,0,3696923,9,231708E-06,4,806,-0,9627832,4,806,-0,06445411,4,806,-0,3706111
0,3702115,1,19173E-05,4,81275,-0,7976196,4,81275,0,09668116,4,81275,-0,6525978,0,3702115,7,385367E-06,4,81275,-0,9668117,4,81275,-0,04834058,4,81275,-0,3706111
0,3707308,1,242084E-05,4,8195,-0,7935912,4,8195,0,1571069,4,8195,-0,6687114,0,3707308,7,049668E-06,4,8195,-0,9668117,4,8195,-0,03625543,4,8195,-0,3706111
0,37125,1,19173E-05,4,82625,-0,7855344,4,82625,0,2336462,4,82625,-0,6485695,0,37125,7,888914E-06,4,82625,-0,9668117,4,82625,-0,02417029,4,82625,-0,3544976
0,3717692,1,242084E-05,4,833,-0,7895628,4,833,0,306157,4,833,-0,6042572,0,3717692,1,02388E-05,4,833,-0,9748684,4,833,-0,02417029,4,833,-0,3544976
0,3722885,1,09102E-05,4,83975,-0,7976196,4,83975,0,3464408,4,83975,-0,5639734,0,3722885,1,15816E-05,4,83975,-0,9788967,4,83975,-0,02014191,4,83975,-0,3464408
0,3728077,1,02388E-05,4,8465,-0,8177615,4,8465,0,3544976,4,8465,-0,5720302,0,3728077,1,258869E-05,4,8465,-0,9909819,4,8465,-0,02417029,4,8465,-0,358526
0,3733269,1,242084E-05,4,85325,-0,8298466,4,85325,0,3383841,4,85325,-0,6042572,0,3733269,1,09102E-05,4,85325,-0,9950103,4,85325,-0,01611353,4,85325,-0,3625543
0,3738461,1,342794E-05,4,86,-0,8298466,4,86,0,2981002,4,86,-0,6243992,0,3738461,8,89601E-06,4,86,-1,003067,4,86,-0,01208515,4,86,-0,3746395
0,3743654,1,242084E-05,4,86675,-0,8258182,4,86675,0,2537881,4,86675,-0,6284276,0,3743654,9,567407E-06,4,86675,-1,015152,4,86675,-0,008056764,4,86675,-0,3706111
0,3748846,1,225299E-05,4,8735,-0,8137331,4,8735,0,2255894,4,8735,-0,6163424,0,3748846,1,258869E-05,4,8735,-1,011124,4,8735,-0,004028382,4,8735,-0,3867247
0,3754039,1,326009E-05,4,88025,-0,8056763,4,88025,0,2175326,4,88025,-0,6243992,0,3754039,1,460288E-05,4,88025,-1,011124,4,88025,-0,008056764,4,88025,-0,3826963
0,3759231,1,393149E-05,4,887,-0,801648,4,887,0,221561,4,887,-0,6284276,0,3759231,1,225299E-05,4,887,-1,003067,4,887,-0,02014191,4,887,-0,3826963
0,3764423,1,309224E-05,4,89375,-0,8056763,4,89375,0,2296178,4,89375,-0,612314,0,3764423,6,881819E-06,4,89375,-0,9950103,4,89375,-0,0443122,4,89375,-0,3867247
0,3769615,1,05745E-05,4,9005,-0,8217899,4,9005,0,2255894,4,9005,-0,5921721,0,3769615,6,54612E-06,4,9005,-0,9909819,4,9005,-0,06445411,4,9005,-0,3867247
0,3774808,7,217517E-06,4,90725,-0,833875,4,90725,0,2255894,4,90725,-0,5962005,0,3774808,1,05745E-05,4,90725,-0,9869535,4,90725,-0,0886244,4,90725,-0,3867247
0,378,6,881819E-06,4,914,-0,833875,4,914,0,2376745,4,914,-0,6082856,0,378,1,292439E-05,4,914,-0,9950103,4,914,-0,1087663,4,914,-0,3706111
0,3785192,7,888914E-06,4,92075,-0,8298466,4,92075,0,2537881,4,92075,-0,6284276,0,3785192,1,258869E-05,4,92075,-1,007095,4,92075,-0,1168231,4,92075,-0,3746395
0,3790385,8,728161E-06,4,9275,-0,8177615,4,9275,0,2457313,4,9275,-0,6364843,0,3790385,1,12459E-05,4,9275,-1,015152,4,9275,-0,1127947,4,9275,-0,3746395
0,3795577,9,735257E-06,4,93425,-0,8177615,4,93425,0,2255894,4,93425,-0,6284276,0,3795577,1,040665E-05,4,93425,-1,011124,4,93425,-0,1087663,4,93425,-0,3706111
0,3800769,1,05745E-05,4,941,-0,7976196,4,941,0,2014191,4,941,-0,6163424,0,3800769,1,107805E-05,4,941,-1,007095,4,941,-0,1087663,4,941,-0,3706111
0,3805962,1,05745E-05,4,94775,-0,7895628,4,94775,0,1893339,4,94775,-0,6203707,0,3805962,1,208515E-05,4,94775,-0,9909819,4,94775,-0,09265278,4,94775,-0,3826963
0,3811154,1,174945E-05,4,9545,-0,7774777,4,9545,0,1893339,4,9545,-0,6445411,0,3811154,1,05745E-05,4,9545,-0,9829252,4,9545,-0,08459602,4,9545,-0,3947814
0,3816346,1,359579E-05,4,96125,-0,7694209,4,96125,0,2135042,4,96125,-0,6606546,0,3816346,7,385367E-06,4,96125,-0,97084,4,96125,-0,07653925,4,96125,-0,3988098
0,3821538,1,275654E-05,4,968,-0,7815061,4,968,0,2457313,4,968,-0,6687114,0,3821538,6,210422E-06,4,968,-0,9627832,4,968,-0,07251087,4,968,-0,4149233
0,3826731,9,903106E-06,4,97475,-0,7855344,4,97475,0,2537881,4,97475,-0,6364843,0,3826731,6,042573E-06,4,97475,-0,9426414,4,97475,-0,06445411,4,97475,-0,4149233
0,3831923,9,567407E-06,4,9815,-0,7976196,4,9815,0,2537881,4,9815,-0,6082856,0,3831923,8,056764E-06,4,9815,-0,9386129,4,9815,-0,06445411,4,9815,-0,4270085
0,3837115,1,19173E-05,4,98825,-0,7976196,4,98825,0,2457313,4,98825,-0,6042572,0,3837115,9,903106E-06,4,98825,-0,9386129,4,98825,-0,06848249,4,98825,-0,4270085
0,3842308,1,426719E-05,4,995,-0,7976196,4,995,0,2457313,4,995,-0,612314,0,3842308,9,063859E-06,4,995,-0,9506981,4,995,-0,0886244,4,995,-0,4310368
0,38475,1,460288E-05,5,00175,-0,8056763,5,00175,0,2497597,5,00175,-0,6042572,0,38475,6,54612E-06,5,00175,-0,97084,5,00175,-0,09265278,5,00175,-0,4229801
0,3852692,1,225299E-05,5,0085,-0,8217899,5,0085,0,2578164,5,0085,-0,6042572,0,3852692,4,699778E-06,5,0085,-0,9909819,5,0085,-0,1007095,5,0085,-0,4149233
0,3857885,1,02388E-05,5,01525,-0,8177615,5,01525,0,2497597,5,01525,-0,6163424,0,3857885,6,042573E-06,5,01525,-1,007095,5,01525,-0,09265278,5,01525,-0,4068666
0,3863077,1,174945E-05,5,022,-0,8137331,5,022,0,2376745,5,022,-0,6364843,0,3863077,6,881819E-06,5,022,-1,019181,5,022,-0,07653925,5,022,-0,3988098
0,3868269,1,393149E-05,5,02875,-0,7895628,5,02875,0,2497597,5,02875,-0,6606546,0,3868269,6,54612E-06,5,02875,-1,007095,5,02875,-0,08056764,5,02875,-0,390753
0,3873461,1,275654E-05,5,0355,-0,7613642,5,0355,0,2779583,5,0355,-0,664683,0,3873461,6,210422E-06,5,0355,-0,9829252,5,0355,-0,07251087,5,0355,-0,3706111
0,3878654,1,05745E-05,5,04225,-0,7371938,5,04225,0,3101854,5,04225,-0,6284276,0,3878654,5,035477E-06,5,04225,-0,9587549,5,04225,-0,08056764,5,04225,-0,3544976
0,3883846,9,231708E-06,5,049,-0,7331654,5,049,0,3303273,5,049,-0,5962005,0,3883846,4,699778E-06,5,049,-0,9386129,5,049,-0,1007095,5,049,-0,3424124
0,3889039,9,231708E-06,5,05575,-0,7412222,5,05575,0,3262989,5,05575,-0,5881437,0,3889039,4,028382E-06,5,05575,-0,9184711,5,05575,-0,1047379,5,05575,-0,3464408
0,3894231,9,903106E-06,5,0625,-0,7734493,5,0625,0,2981002,5,0625,-0,612314,0,3894231,3,189135E-06,5,0625,-0,9265279,5,0625,-0,1208515,5,0625,-0,3424124
0,3899423,1,12459E-05,5,06925,-0,8056763,5,06925,0,2578164,5,06925,-0,6203707,0,3899423,3,021286E-06,5,06925,-0,9386129,5,06925,-0,1208515,5,06925,-0,3464408
0,3904615,1,242084E-05,5,076,-0,8298466,5,076,0,221561,5,076,-0,5921721,0,3904615,5,035477E-06,5,076,-0,9587549,5,076,-0,1127947,5,076,-0,3625543
0,3909808,1,09102E-05,5,08275,-0,8379034,5,08275,0,1973907,5,08275,-0,5357748,0,3909808,8,560311E-06,5,08275,-0,97084,5,08275,-0,1127947,5,08275,-0,3786679
0,3915,1,040665E-05,5,0895,-0,833875,5,0895,0,1812772,5,0895,-0,5317464,0,3915,8,89601E-06,5,0895,-0,9829252,5,0895,-0,1047379,5,0895,-0,3867247
0,3920192,1,174945E-05,5,09625,-0,8217899,5,09625,0,1732204,5,09625,-0,5720302,0,3920192,7,217517E-06,5,09625,-0,9909819,5,09625,-0,1007095,5,09625,-0,390753
0,3925385,1,393149E-05,5,103,-0,801648,5,103,0,1772488,5,103,-0,612314,0,3925385,7,217517E-06,5,103,-1,003067,5,103,-0,09265278,5,103,-0,3988098
0,3930577,1,09102E-05,5,10975,-0,7935912,5,10975,0,2054475,5,10975,-0,6364843,0,3930577,8,224613E-06,5,10975,-1,015152,5,10975,-0,0886244,5,10975,-0,4068666
0,3935769,6,378271E-06,5,1165,-0,7895628,5,1165,0,221561,5,1165,-0,6485695,0,3935769,8,392462E-06,5,1165,-1,011124,5,1165,-0,07251087,5,1165,-0,4068666
0,3940962,5,874724E-06,5,12325,-0,7895628,5,12325,0,2296178,5,12325,-0,6002288,0,3940962,8,560311E-06,5,12325,-1,003067,5,12325,-0,05236896,5,12325,-0,4068666
0,3946154,7,888914E-06,5,13,-0,801648,5,13,0,2296178,5,13,-0,5841153,0,3946154,8,224613E-06,5,13,-0,9829252,5,13,-0,06042573,5,13,-0,4108949
0,3951346,9,063859E-06,5,13675,-0,8097047,5,13675,0,2457313,5,13675,-0,6042572,0,3951346,8,224613E-06,5,13675,-0,9627832,5,13675,-0,06042573,5,13675,-0,3947814
0,3956538,1,05745E-05,5,1435,-0,8137331,5,1435,0,2860151,5,1435,-0,6163424,0,3956538,8,224613E-06,5,1435,-0,9506981,5,1435,-0,08056764,5,1435,-0,4028382
0,3961731,1,242084E-05,5,15025,-0,8217899,5,15025,0,3383841,5,15025,-0,612314,0,3961731,6,54612E-06,5,15025,-0,9426414,5,15025,-0,08459602,5,15025,-0,4028382
0,3966923,1,426719E-05,5,157,-0,8217899,5,157,0,3786679,5,157,-0,6082856,0,3966923,5,874724E-06,5,157,-0,9386129,5,157,-0,06445411,5,157,-0,3947814
0,3972116,1,544213E-05,5,16375,-0,8097047,5,16375,0,3625543,5,16375,-0,612314,0,3972116,8,224613E-06,5,16375,-0,9345846,5,16375,-0,05236896,5,16375,-0,3786679
0,3977308,1,560998E-05,5,1705,-0,7895628,5,1705,0,3222705,5,1705,-0,6284276,0,3977308,1,15816E-05,5,1705,-0,9305562,5,1705,-0,05639734,5,1705,-0,3746395
0,39825,1,359579E-05,5,17725,-0,7694209,5,17725,0,2900435,5,17725,-0,6445411,0,39825,1,174945E-05,5,17725,-0,9466697,5,17725,-0,08056764,5,17725,-0,3746395
0,3987692,1,141375E-05,5,184,-0,7613642,5,184,0,2699016,5,184,-0,6364843,0,3987692,1,007095E-05,5,184,-0,9547265,5,184,-0,1208515,5,184,-0,3706111
0,3992885,1,15816E-05,5,19075,-0,7653925,5,19075,0,2618448,5,19075,-0,612314,0,3992885,1,174945E-05,5,19075,-0,9668117,5,19075,-0,1490501,5,19075,-0,3665827
0,3998077,1,426719E-05,5,1975,-0,7694209,5,1975,0,2578164,5,1975,-0,612314,0,3998077,1,326009E-05,5,1975,-0,97084,5,1975,-0,169192,5,1975,-0,3786679
0,4003269,1,460288E-05,5,20425,-0,7895628,5,20425,0,2336462,5,20425,-0,6082856,0,4003269,1,225299E-05,5,20425,-0,9829252,5,20425,-0,169192,5,20425,-0,390753
0,4008462,1,326009E-05,5,211,-0,8137331,5,211,0,1893339,5,211,-0,6203707,0,4008462,1,12459E-05,5,211,-0,9909819,5,211,-0,1651637,5,211,-0,4270085
0,4013654,1,258869E-05,5,21775,-0,8258182,5,21775,0,1571069,5,21775,-0,6405127,0,4013654,1,225299E-05,5,21775,-0,9990387,5,21775,-0,1450217,5,21775,-0,4552071
0,4018846,1,258869E-05,5,2245,-0,8499885,5,2245,0,1329366,5,2245,-0,6364843,0,4018846,1,359579E-05,5,2245,-1,007095,5,2245,-0,1289082,5,2245,-0,4672923
0,4024039,1,225299E-05,5,23125,-0,866102,5,23125,0,1329366,5,23125,-0,6042572,0,4024039,1,493858E-05,5,23125,-0,9990387,5,23125,-0,1087663,5,23125,-0,4713207
0,4029231,1,258869E-05,5,238,-0,8540169,5,238,0,1409934,5,238,-0,5921721,0,4029231,1,628138E-05,5,238,-0,9909819,5,238,-0,0886244,5,238,-0,4834058
0,4034423,1,460288E-05,5,24475,-0,8298466,5,24475,0,169192,5,24475,-0,6364843,0,4034423,1,393149E-05,5,24475,-0,9668117,5,24475,-0,06848249,5,24475,-0,4713207
0,4039615,1,678492E-05,5,2515,-0,7895628,5,2515,0,2296178,5,2515,-0,69691,0,4039615,1,225299E-05,5,2515,-0,9506981,5,2515,-0,06042573,5,2515,-0,4632639
0,4044808,1,661708E-05,5,25825,-0,749279,5,25825,0,2981002,5,25825,-0,7170519,0,4044808,1,05745E-05,5,25825,-0,9265279,5,25825,-0,06042573,5,25825,-0,4511787
0,405,1,695277E-05,5,265,-0,7251087,5,265,0,3303273,5,265,-0,69691,0,405,9,903106E-06,5,265,-0,9063858,5,265,-0,05639734,5,265,-0,443122
0,4055192,1,695277E-05,5,27175,-0,7049668,5,27175,0,3464408,5,27175,-0,6405127,0,4055192,1,107805E-05,5,27175,-0,8862439,5,27175,-0,06042573,5,27175,-0,4310368
0,4060385,1,560998E-05,5,2785,-0,7089952,5,2785,0,358526,5,2785,-0,5962005,0,4060385,1,12459E-05,5,2785,-0,8822156,5,2785,-0,05236896,5,2785,-0,4270085
