Label: R BICEPS BRACHII: EMG 1 Sampling frequency: 1,925926e+003 Number of points: 58682 start: 0,000000e+000 Unit: Volts Domain Unit: s
Label: R BICEPS BRACHII: Acc 1.X Sampling frequency: 1,481481e+002 Number of points: 4514 start: 0,000000e+000 Unit: g Domain Unit: s
Label: R BICEPS BRACHII: Acc 1.Y Sampling frequency: 1,481481e+002 Number of points: 4514 start: 0,000000e+000 Unit: g Domain Unit: s
Label: R BICEPS BRACHII: Acc 1.Z Sampling frequency: 1,481481e+002 Number of points: 4514 start: 0,000000e+000 Unit: g Domain Unit: s
Label: R TRICEPS BRACHII: EMG 2 Sampling frequency: 1,925926e+003 Number of points: 58682 start: 0,000000e+000 Unit: Volts Domain Unit: s
Label: R TRICEPS BRACHII: Acc 2.X Sampling frequency: 1,481481e+002 Number of points: 4514 start: 0,000000e+000 Unit: g Domain Unit: s
Label: R TRICEPS BRACHII: Acc 2.Y Sampling frequency: 1,481481e+002 Number of points: 4514 start: 0,000000e+000 Unit: g Domain Unit: s
Label: R TRICEPS BRACHII: Acc 2.Z Sampling frequency: 1,481481e+002 Number of points: 4514 start: 0,000000e+000 Unit: g Domain Unit: s
Start Trigger Method: None
Stop Trigger Method: None
 
X[s],"R BICEPS BRACHII: EMG 1",X[s],"R BICEPS BRACHII: Acc 1.X",X[s],"R BICEPS BRACHII: Acc 1.Y",X[s],"R BICEPS BRACHII: Acc 1.Z",X[s],"R TRICEPS BRACHII: EMG 2",X[s],"R TRICEPS BRACHII: Acc 2.X",X[s],"R TRICEPS BRACHII: Acc 2.Y",X[s],"R TRICEPS BRACHII: Acc 2.Z"
0.000000,0,0.000000,0,0.000000,0,0.000000,0,0.000000,0,0.000000,0,0.000000,0,0.000000,0
0,0005192308,0,0,00675,0,0,00675,0,0,00675,0,0,0005192308,0,0,00675,0,0,00675,0,0,00675,0
0,001038462,0,0,0135,0,0,0135,0,0,0135,0,0,001038462,0,0,0135,0,0,0135,0,0,0135,0
0,001557692,0,0,02025,0,0,02025,0,0,02025,0,0,001557692,0,0,02025,0,0,02025,0,0,02025,0
0,002076923,0,0,027,-0,833875,0,027,0,1571069,0,027,-0,5518883,0,002076923,0,0,027,-0,9869535,0,027,0,0443122,0,027,-0,3665827
0,002596154,0,0,03375,-0,833875,0,03375,0,1571069,0,03375,-0,5438315,0,002596154,0,0,03375,-0,9909819,0,03375,0,04834058,0,03375,-0,3665827
0,003115385,0,0,0405,-0,8419318,0,0405,0,1530785,0,0405,-0,5438315,0,003115385,0,0,0405,-0,9990387,0,0405,0,04834058,0,0405,-0,3625543
0,003634615,0,0,04725,-0,8419318,0,04725,0,1611353,0,04725,-0,5357748,0,003634615,0,0,04725,-0,9990387,0,04725,0,06042573,0,04725,-0,3625543
0,004153846,0,0,054,-0,8379034,0,054,0,1651637,0,054,-0,5357748,0,004153846,0,0,054,-0,9990387,0,054,0,05236896,0,054,-0,3665827
0,004673077,0,0,06075,-0,8379034,0,06075,0,1732204,0,06075,-0,5357748,0,004673077,0,0,06075,-0,9909819,0,06075,0,05236896,0,06075,-0,3625543
0,005192308,0,0,0675,-0,8379034,0,0675,0,1812772,0,0675,-0,5398031,0,005192308,0,0,0675,-0,9909819,0,0675,0,04028382,0,0675,-0,3625543
0,005711539,0,0,07425,-0,833875,0,07425,0,1853056,0,07425,-0,5357748,0,005711539,0,0,07425,-0,9829252,0,07425,0,04834058,0,07425,-0,3544976
0,006230769,0,0,081,-0,8298466,0,081,0,1853056,0,081,-0,5398031,0,006230769,0,0,081,-0,9829252,0,081,0,0443122,0,081,-0,358526
0,00675,0,0,08775,-0,8298466,0,08775,0,1853056,0,08775,-0,5438315,0,00675,0,0,08775,-0,9829252,0,08775,0,04028382,0,08775,-0,3544976
0,007269231,0,0,0945,-0,8298466,0,0945,0,1812772,0,0945,-0,5357748,0,007269231,0,0,0945,-0,9829252,0,0945,0,0443122,0,0945,-0,358526
0,007788462,0,0,10125,-0,8298466,0,10125,0,1772488,0,10125,-0,5398031,0,007788462,0,0,10125,-0,9829252,0,10125,0,04028382,0,10125,-0,3544976
0,008307693,0,0,108,-0,833875,0,108,0,1772488,0,108,-0,5438315,0,008307693,0,0,108,-0,9869535,0,108,0,03625543,0,108,-0,358526
0,008826924,0,0,11475,-0,833875,0,11475,0,169192,0,11475,-0,5398031,0,008826924,0,0,11475,-0,9909819,0,11475,0,0443122,0,11475,-0,3544976
0,009346154,0,0,1215,-0,833875,0,1215,0,1611353,0,1215,-0,5438315,0,009346154,0,0,1215,-0,9869535,0,1215,0,0443122,0,1215,-0,3665827
0,009865385,0,0,12825,-0,833875,0,12825,0,1611353,0,12825,-0,5398031,0,009865385,0,0,12825,-0,9909819,0,12825,0,04028382,0,12825,-0,3544976
0,01038462,0,0,135,-0,8258182,0,135,0,1611353,0,135,-0,5398031,0,01038462,0,0,135,-0,9829252,0,135,0,04028382,0,135,-0,3625543
0,01090385,0,0,14175,-0,8217899,0,14175,0,1732204,0,14175,-0,5398031,0,01090385,0,0,14175,-0,9748684,0,14175,0,03625543,0,14175,-0,3625543
0,01142308,0,0,1485,-0,8217899,0,1485,0,1732204,0,1485,-0,5438315,0,01142308,0,0,1485,-0,9748684,0,1485,0,03222705,0,1485,-0,358526
0,01194231,0,0,15525,-0,8217899,0,15525,0,169192,0,15525,-0,5398031,0,01194231,0,0,15525,-0,9748684,0,15525,0,02819867,0,15525,-0,3625543
0,01246154,0,0,162,-0,8298466,0,162,0,1732204,0,162,-0,5357748,0,01246154,0,0,162,-0,9788967,0,162,0,02819867,0,162,-0,358526
0,01298077,0,0,16875,-0,8379034,0,16875,0,169192,0,16875,-0,5478599,0,01298077,0,0,16875,-0,9909819,0,16875,0,03625543,0,16875,-0,3504692
0,0135,0,0,1755,-0,8419318,0,1755,0,169192,0,1755,-0,5478599,0,0135,0,0,1755,-0,9950103,0,1755,0,03625543,0,1755,-0,3464408
0,01401923,0,0,18225,-0,8419318,0,18225,0,169192,0,18225,-0,5438315,0,01401923,0,0,18225,-0,9909819,0,18225,0,03222705,0,18225,-0,358526
0,01453846,0,0,189,-0,8379034,0,189,0,1732204,0,189,-0,5438315,0,01453846,0,0,189,-0,9829252,0,189,0,03222705,0,189,-0,358526
0,01505769,0,0,19575,-0,8258182,0,19575,0,169192,0,19575,-0,5478599,0,01505769,0,0,19575,-0,9788967,0,19575,0,03222705,0,19575,-0,358526
0,01557692,0,0,2025,-0,8298466,0,2025,0,1732204,0,2025,-0,5398031,0,01557692,0,0,2025,-0,9788967,0,2025,0,04028382,0,2025,-0,3625543
0,01609615,0,0,20925,-0,833875,0,20925,0,1651637,0,20925,-0,5398031,0,01609615,0,0,20925,-0,9869535,0,20925,0,03222705,0,20925,-0,358526
0,01661539,0,0,216,-0,8419318,0,216,0,1651637,0,216,-0,5398031,0,01661539,0,0,216,-0,9950103,0,216,0,0443122,0,216,-0,3625543
0,01713462,0,0,22275,-0,8540169,0,22275,0,169192,0,22275,-0,5398031,0,01713462,0,0,22275,-0,9950103,0,22275,0,04834058,0,22275,-0,358526
0,01765385,0,0,2295,-0,8499885,0,2295,0,1732204,0,2295,-0,5398031,0,01765385,0,0,2295,-0,9990387,0,2295,0,05639734,0,2295,-0,3665827
0,01817308,0,0,23625,-0,8459601,0,23625,0,169192,0,23625,-0,5438315,0,01817308,0,0,23625,-0,9990387,0,23625,0,06848249,0,23625,-0,358526
0,01869231,0,0,243,-0,8379034,0,243,0,169192,0,243,-0,5478599,0,01869231,0,0,243,-0,9990387,0,243,0,06042573,0,243,-0,358526
0,01921154,0,0,24975,-0,8298466,0,24975,0,1651637,0,24975,-0,5438315,0,01921154,0,0,24975,-0,9950103,0,24975,0,06042573,0,24975,-0,3544976
0,01973077,0,0,2565,-0,8298466,0,2565,0,1732204,0,2565,-0,5478599,0,01973077,0,0,2565,-0,9909819,0,2565,0,04834058,0,2565,-0,3665827
0,02025,0,0,26325,-0,833875,0,26325,0,1772488,0,26325,-0,5438315,0,02025,0,0,26325,-0,9909819,0,26325,0,04028382,0,26325,-0,3665827
0,02076923,0,0,27,-0,8298466,0,27,0,1772488,0,27,-0,5478599,0,02076923,0,0,27,-0,9829252,0,27,0,02819867,0,27,-0,3625543
0,02128846,0,0,27675,-0,8379034,0,27675,0,1812772,0,27675,-0,5518883,0,02128846,0,0,27675,-0,9869535,0,27675,0,02417029,0,27675,-0,3544976
0,02180769,0,0,2835,-0,8419318,0,2835,0,1772488,0,2835,-0,5478599,0,02180769,0,0,2835,-0,9829252,0,2835,0,02417029,0,2835,-0,3544976
0,02232692,0,0,29025,-0,8379034,0,29025,0,1812772,0,29025,-0,5518883,0,02232692,0,0,29025,-0,9748684,0,29025,0,02417029,0,29025,-0,358526
0,02284615,0,0,297,-0,8379034,0,297,0,1812772,0,297,-0,5438315,0,02284615,0,0,297,-0,9668117,0,297,0,02417029,0,297,-0,358526
0,02336538,0,0,30375,-0,8298466,0,30375,0,1732204,0,30375,-0,5398031,0,02336538,0,0,30375,-0,9627832,0,30375,0,02417029,0,30375,-0,3665827
0,02388461,0,0,3105,-0,8217899,0,3105,0,169192,0,3105,-0,5398031,0,02388461,0,0,3105,-0,9627832,0,3105,0,03222705,0,3105,-0,3665827
0,02440385,0,0,31725,-0,8217899,0,31725,0,169192,0,31725,-0,5357748,0,02440385,0,0,31725,-0,9668117,0,31725,0,03222705,0,31725,-0,3706111
0,02492308,0,0,324,-0,8217899,0,324,0,1611353,0,324,-0,5438315,0,02492308,0,0,324,-0,97084,0,324,0,04028382,0,324,-0,3665827
0,02544231,0,0,33075,-0,8217899,0,33075,0,1651637,0,33075,-0,5438315,0,02544231,0,0,33075,-0,9668117,0,33075,0,04028382,0,33075,-0,3625543
0,02596154,0,0,3375,-0,8258182,0,3375,0,1651637,0,3375,-0,5478599,0,02596154,0,0,3375,-0,9829252,0,3375,0,0443122,0,3375,-0,3625543
0,02648077,0,0,34425,-0,833875,0,34425,0,1732204,0,34425,-0,5518883,0,02648077,0,0,34425,-0,9829252,0,34425,0,04028382,0,34425,-0,358526
0,027,5,035478E-07,0,351,-0,8379034,0,351,0,169192,0,351,-0,5478599,0,027,9,567407E-06,0,351,-0,9950103,0,351,0,0443122,0,351,-0,3625543
0,02751923,1,846342E-06,0,35775,-0,8419318,0,35775,0,1772488,0,35775,-0,5478599,0,02751923,6,210422E-06,0,35775,-0,9950103,0,35775,0,0443122,0,35775,-0,358526
0,02803846,6,71397E-06,0,3645,-0,8499885,0,3645,0,1812772,0,3645,-0,5438315,0,02803846,5,035477E-06,0,3645,-0,9990387,0,3645,0,0443122,0,3645,-0,3544976
0,02855769,9,903106E-06,0,37125,-0,8499885,0,37125,0,1772488,0,37125,-0,5357748,0,02855769,6,210422E-06,0,37125,-0,9990387,0,37125,0,05236896,0,37125,-0,3625543
0,02907692,1,292439E-05,0,378,-0,8379034,0,378,0,1732204,0,378,-0,5357748,0,02907692,7,721065E-06,0,378,-0,9909819,0,378,0,05236896,0,378,-0,3706111
0,02959615,1,661708E-05,0,38475,-0,833875,0,38475,0,1732204,0,38475,-0,5357748,0,02959615,1,09102E-05,0,38475,-0,9869535,0,38475,0,0443122,0,38475,-0,3665827
0,03011538,1,762417E-05,0,3915,-0,8298466,0,3915,0,1732204,0,3915,-0,5317464,0,03011538,1,12459E-05,0,3915,-0,9788967,0,3915,0,0443122,0,3915,-0,3706111
0,03063462,1,594568E-05,0,39825,-0,833875,0,39825,0,1732204,0,39825,-0,5398031,0,03063462,8,224613E-06,0,39825,-0,9788967,0,39825,0,04834058,0,39825,-0,3665827
0,03115385,1,527428E-05,0,405,-0,833875,0,405,0,1651637,0,405,-0,5398031,0,03115385,6,71397E-06,0,405,-0,9829252,0,405,0,04834058,0,405,-0,3625543
0,03167308,1,426719E-05,0,41175,-0,8379034,0,41175,0,169192,0,41175,-0,5438315,0,03167308,7,217517E-06,0,41175,-0,9788967,0,41175,0,04028382,0,41175,-0,3544976
0,03219231,1,426719E-05,0,4185,-0,8459601,0,4185,0,169192,0,4185,-0,5478599,0,03219231,9,063859E-06,0,4185,-0,9788967,0,4185,0,04028382,0,4185,-0,3665827
0,03271154,1,695277E-05,0,42525,-0,8459601,0,42525,0,1732204,0,42525,-0,5559167,0,03271154,1,174945E-05,0,42525,-0,9829252,0,42525,0,04834058,0,42525,-0,3625543
0,03323077,1,712062E-05,0,432,-0,8419318,0,432,0,1732204,0,432,-0,5478599,0,03323077,1,15816E-05,0,432,-0,9909819,0,432,0,0443122,0,432,-0,3625543
0,03375,1,493858E-05,0,43875,-0,833875,0,43875,0,1732204,0,43875,-0,5357748,0,03375,1,05745E-05,0,43875,-0,9869535,0,43875,0,04834058,0,43875,-0,3625543
0,03426923,1,661708E-05,0,4455,-0,833875,0,4455,0,1732204,0,4455,-0,5398031,0,03426923,1,15816E-05,0,4455,-0,9950103,0,4455,0,0443122,0,4455,-0,3625543
0,03478846,1,762417E-05,0,45225,-0,8298466,0,45225,0,1732204,0,45225,-0,5357748,0,03478846,1,208515E-05,0,45225,-0,9909819,0,45225,0,04028382,0,45225,-0,3625543
0,03530769,1,712062E-05,0,459,-0,833875,0,459,0,1772488,0,459,-0,5317464,0,03530769,1,258869E-05,0,459,-0,9869535,0,459,0,0443122,0,459,-0,3665827
0,03582693,1,443503E-05,0,46575,-0,8298466,0,46575,0,169192,0,46575,-0,5357748,0,03582693,1,309224E-05,0,46575,-0,9909819,0,46575,0,03625543,0,46575,-0,358526
0,03634615,1,19173E-05,0,4725,-0,8298466,0,4725,0,1651637,0,4725,-0,5398031,0,03634615,1,107805E-05,0,4725,-0,9909819,0,4725,0,03625543,0,4725,-0,3625543
0,03686538,1,02388E-05,0,47925,-0,8298466,0,47925,0,169192,0,47925,-0,5438315,0,03686538,8,89601E-06,0,47925,-0,9869535,0,47925,0,03625543,0,47925,-0,3625543
0,03738461,1,02388E-05,0,486,-0,833875,0,486,0,1651637,0,486,-0,5478599,0,03738461,7,049668E-06,0,486,-0,9869535,0,486,0,03625543,0,486,-0,358526
0,03790385,9,567407E-06,0,49275,-0,8298466,0,49275,0,169192,0,49275,-0,5438315,0,03790385,5,539025E-06,0,49275,-0,9788967,0,49275,0,03625543,0,49275,-0,358526
0,03842308,6,881819E-06,0,4995,-0,8298466,0,4995,0,1611353,0,4995,-0,5518883,0,03842308,7,721065E-06,0,4995,-0,9748684,0,4995,0,03625543,0,4995,-0,358526
0,03894231,3,692683E-06,0,50625,-0,8298466,0,50625,0,1651637,0,50625,-0,5518883,0,03894231,8,89601E-06,0,50625,-0,9748684,0,50625,0,04834058,0,50625,-0,3625543
0,03946154,4,36408E-06,0,513,-0,8379034,0,513,0,1611353,0,513,-0,5438315,0,03946154,5,874724E-06,0,513,-0,9788967,0,513,0,0443122,0,513,-0,3665827
0,03998077,7,217517E-06,0,51975,-0,8459601,0,51975,0,1651637,0,51975,-0,5438315,0,03998077,2,517739E-06,0,51975,-0,9869535,0,51975,0,0443122,0,51975,-0,3625543
0,0405,9,903106E-06,0,5265,-0,8419318,0,5265,0,1732204,0,5265,-0,5438315,0,0405,1,678492E-07,0,5265,-0,9869535,0,5265,0,0443122,0,5265,-0,3625543
0,04101923,1,174945E-05,0,53325,-0,8419318,0,53325,0,1732204,0,53325,-0,527718,0,04101923,-1,007096E-06,0,53325,-0,9909819,0,53325,0,04834058,0,53325,-0,3544976
0,04153846,1,342794E-05,0,54,-0,8379034,0,54,0,1772488,0,54,-0,5317464,0,04153846,-1,678492E-06,0,54,-0,9990387,0,54,0,05236896,0,54,-0,358526
0,04205769,1,493858E-05,0,54675,-0,833875,0,54675,0,1732204,0,54675,-0,5317464,0,04205769,8,392462E-07,0,54675,-0,9909819,0,54675,0,05639734,0,54675,-0,3665827
0,04257692,1,359579E-05,0,5535,-0,8258182,0,5535,0,1812772,0,5535,-0,527718,0,04257692,1,846342E-06,0,5535,-0,9869535,0,5535,0,0443122,0,5535,-0,3625543
0,04309615,1,12459E-05,0,56025,-0,8298466,0,56025,0,1812772,0,56025,-0,5317464,0,04309615,1,510643E-06,0,56025,-0,9909819,0,56025,0,04834058,0,56025,-0,358526
0,04361539,1,107805E-05,0,567,-0,833875,0,567,0,1732204,0,567,-0,5357748,0,04361539,1,846342E-06,0,567,-0,9990387,0,567,0,04834058,0,567,-0,358526
0,04413462,1,09102E-05,0,57375,-0,8419318,0,57375,0,1732204,0,57375,-0,5438315,0,04413462,8,392462E-07,0,57375,-0,9869535,0,57375,0,05236896,0,57375,-0,3544976
0,04465385,1,15816E-05,0,5805,-0,8379034,0,5805,0,1732204,0,5805,-0,5478599,0,04465385,2,517739E-06,0,5805,-0,9829252,0,5805,0,04834058,0,5805,-0,358526
0,04517308,1,09102E-05,0,58725,-0,8419318,0,58725,0,169192,0,58725,-0,5398031,0,04517308,5,539025E-06,0,58725,-0,9829252,0,58725,0,04834058,0,58725,-0,3544976
0,04569231,1,007095E-05,0,594,-0,8419318,0,594,0,1772488,0,594,-0,5398031,0,04569231,6,881819E-06,0,594,-0,9909819,0,594,0,0443122,0,594,-0,3504692
0,04621154,1,05745E-05,0,60075,-0,8379034,0,60075,0,169192,0,60075,-0,5398031,0,04621154,7,888914E-06,0,60075,-0,9869535,0,60075,0,04028382,0,60075,-0,3544976
0,04673077,1,225299E-05,0,6075,-0,833875,0,6075,0,169192,0,6075,-0,5357748,0,04673077,9,399557E-06,0,6075,-0,9829252,0,6075,0,03625543,0,6075,-0,3625543
0,04725,1,393149E-05,0,61425,-0,833875,0,61425,0,169192,0,61425,-0,5398031,0,04725,1,05745E-05,0,61425,-0,9829252,0,61425,0,03625543,0,61425,-0,3706111
0,04776923,1,644923E-05,0,621,-0,8258182,0,621,0,1651637,0,621,-0,5317464,0,04776923,9,735257E-06,0,621,-0,9829252,0,621,0,03222705,0,621,-0,3665827
0,04828846,1,913481E-05,0,62775,-0,8217899,0,62775,0,169192,0,62775,-0,5357748,0,04828846,6,881819E-06,0,62775,-0,9788967,0,62775,0,02819867,0,62775,-0,3625543
0,04880769,1,728847E-05,0,6345,-0,8217899,0,6345,0,169192,0,6345,-0,5357748,0,04880769,7,049668E-06,0,6345,-0,9748684,0,6345,0,02417029,0,6345,-0,3504692
0,04932692,1,393149E-05,0,64125,-0,8258182,0,64125,0,1651637,0,64125,-0,5317464,0,04932692,7,553216E-06,0,64125,-0,9748684,0,64125,0,03625543,0,64125,-0,3464408
0,04984615,1,19173E-05,0,648,-0,833875,0,648,0,1611353,0,648,-0,5438315,0,04984615,7,217517E-06,0,648,-0,9829252,0,648,0,03625543,0,648,-0,3504692
0,05036538,1,326009E-05,0,65475,-0,8379034,0,65475,0,1732204,0,65475,-0,5398031,0,05036538,8,224613E-06,0,65475,-0,9909819,0,65475,0,03625543,0,65475,-0,3464408
0,05088462,1,326009E-05,0,6615,-0,8379034,0,6615,0,1772488,0,6615,-0,5438315,0,05088462,1,05745E-05,0,6615,-0,9950103,0,6615,0,03222705,0,6615,-0,3464408
0,05140385,1,19173E-05,0,66825,-0,8379034,0,66825,0,1772488,0,66825,-0,5357748,0,05140385,1,040665E-05,0,66825,-0,9909819,0,66825,0,03625543,0,66825,-0,3504692
0,05192308,1,02388E-05,0,675,-0,833875,0,675,0,1772488,0,675,-0,5398031,0,05192308,9,231708E-06,0,675,-0,9829252,0,675,0,0443122,0,675,-0,3424124
0,05244231,7,217517E-06,0,68175,-0,8258182,0,68175,0,1772488,0,68175,-0,527718,0,05244231,9,231708E-06,0,68175,-0,9829252,0,68175,0,0443122,0,68175,-0,358526
0,05296154,2,517739E-06,0,6885,-0,8258182,0,6885,0,1812772,0,6885,-0,527718,0,05296154,9,063859E-06,0,6885,-0,9748684,0,6885,0,0443122,0,6885,-0,3625543
0,05348077,-1,007096E-06,0,69525,-0,8258182,0,69525,0,1772488,0,69525,-0,5398031,0,05348077,8,560311E-06,0,69525,-0,9788967,0,69525,0,04028382,0,69525,-0,3625543
0,054,-1,510643E-06,0,702,-0,8379034,0,702,0,169192,0,702,-0,5398031,0,054,7,553216E-06,0,702,-0,9869535,0,702,0,03625543,0,702,-0,3625543
0,05451923,-2,853437E-06,0,70875,-0,8459601,0,70875,0,1732204,0,70875,-0,5398031,0,05451923,9,063859E-06,0,70875,-0,9990387,0,70875,0,04028382,0,70875,-0,3625543
0,05503846,-5,539025E-06,0,7155,-0,8540169,0,7155,0,1651637,0,7155,-0,5478599,0,05503846,1,174945E-05,0,7155,-0,9990387,0,7155,0,0443122,0,7155,-0,3625543
0,05555769,-6,210422E-06,0,72225,-0,8540169,0,72225,0,169192,0,72225,-0,5438315,0,05555769,1,443503E-05,0,72225,-1,003067,0,72225,0,04834058,0,72225,-0,3504692
0,05607693,-3,189135E-06,0,729,-0,8540169,0,729,0,1732204,0,729,-0,5398031,0,05607693,1,527428E-05,0,729,-1,011124,0,729,0,05236896,0,729,-0,3625543
0,05659616,2,853437E-06,0,73575,-0,8499885,0,73575,0,1772488,0,73575,-0,5398031,0,05659616,1,326009E-05,0,73575,-1,011124,0,73575,0,05236896,0,73575,-0,358526
0,05711538,7,553216E-06,0,7425,-0,8419318,0,7425,0,1772488,0,7425,-0,5357748,0,05711538,1,15816E-05,0,7425,-1,003067,0,7425,0,04028382,0,7425,-0,358526
0,05763461,9,231708E-06,0,74925,-0,833875,0,74925,0,1812772,0,74925,-0,5317464,0,05763461,1,09102E-05,0,74925,-0,9990387,0,74925,0,03625543,0,74925,-0,3544976
0,05815385,8,224613E-06,0,756,-0,8298466,0,756,0,1853056,0,756,-0,5438315,0,05815385,1,05745E-05,0,756,-0,9909819,0,756,0,03625543,0,756,-0,3625543
0,05867308,6,881819E-06,0,76275,-0,8258182,0,76275,0,1853056,0,76275,-0,5357748,0,05867308,1,12459E-05,0,76275,-0,9829252,0,76275,0,02819867,0,76275,-0,358526
0,05919231,7,553216E-06,0,7695,-0,8258182,0,7695,0,1812772,0,7695,-0,5398031,0,05919231,1,393149E-05,0,7695,-0,97084,0,7695,0,02014191,0,7695,-0,3504692
0,05971154,1,040665E-05,0,77625,-0,8217899,0,77625,0,1893339,0,77625,-0,5398031,0,05971154,1,493858E-05,0,77625,-0,9627832,0,77625,0,02417029,0,77625,-0,3544976
0,06023077,1,510643E-05,0,783,-0,8258182,0,783,0,1812772,0,783,-0,5438315,0,06023077,1,258869E-05,0,783,-0,9587549,0,783,0,02819867,0,783,-0,3504692
0,06075,2,030976E-05,0,78975,-0,8298466,0,78975,0,1772488,0,78975,-0,5438315,0,06075,1,040665E-05,0,78975,-0,9547265,0,78975,0,02417029,0,78975,-0,3504692
0,06126923,2,165255E-05,0,7965,-0,8298466,0,7965,0,169192,0,7965,-0,5398031,0,06126923,9,231708E-06,0,7965,-0,9668117,0,7965,0,02417029,0,7965,-0,3625543
0,06178846,1,913481E-05,0,80325,-0,833875,0,80325,0,169192,0,80325,-0,5398031,0,06178846,9,903106E-06,0,80325,-0,97084,0,80325,0,02819867,0,80325,-0,358526
0,06230769,1,762417E-05,0,81,-0,833875,0,81,0,1611353,0,81,-0,5478599,0,06230769,1,12459E-05,0,81,-0,9788967,0,81,0,03222705,0,81,-0,3706111
0,06282692,1,762417E-05,0,81675,-0,833875,0,81675,0,1571069,0,81675,-0,5438315,0,06282692,1,05745E-05,0,81675,-0,9829252,0,81675,0,04028382,0,81675,-0,358526
0,06334615,1,661708E-05,0,8235,-0,833875,0,8235,0,1571069,0,8235,-0,5438315,0,06334615,8,560311E-06,0,8235,-0,9909819,0,8235,0,04834058,0,8235,-0,3544976
0,06386539,1,393149E-05,0,83025,-0,8419318,0,83025,0,1611353,0,83025,-0,5438315,0,06386539,6,54612E-06,0,83025,-0,9829252,0,83025,0,05236896,0,83025,-0,3544976
0,06438462,1,05745E-05,0,837,-0,8419318,0,837,0,1651637,0,837,-0,5357748,0,06438462,5,706875E-06,0,837,-0,9909819,0,837,0,0443122,0,837,-0,358526
0,06490385,7,217517E-06,0,84375,-0,8419318,0,84375,0,1732204,0,84375,-0,5357748,0,06490385,7,217517E-06,0,84375,-0,9909819,0,84375,0,04834058,0,84375,-0,3544976
0,06542308,8,728161E-06,0,8505,-0,8459601,0,8505,0,169192,0,8505,-0,5398031,0,06542308,9,399557E-06,0,8505,-0,9869535,0,8505,0,04834058,0,8505,-0,3544976
0,06594231,1,225299E-05,0,85725,-0,8379034,0,85725,0,1812772,0,85725,-0,5317464,0,06594231,1,15816E-05,0,85725,-0,9909819,0,85725,0,0443122,0,85725,-0,358526
0,06646154,1,628138E-05,0,864,-0,8298466,0,864,0,1853056,0,864,-0,5357748,0,06646154,1,309224E-05,0,864,-0,9909819,0,864,0,0443122,0,864,-0,358526
0,06698077,1,728847E-05,0,87075,-0,8258182,0,87075,0,1973907,0,87075,-0,5317464,0,06698077,1,141375E-05,0,87075,-0,9788967,0,87075,0,0443122,0,87075,-0,3544976
0,0675,1,661708E-05,0,8775,-0,8298466,0,8775,0,1973907,0,8775,-0,5317464,0,0675,1,007095E-05,0,8775,-0,9788967,0,8775,0,04834058,0,8775,-0,358526
0,06801923,1,695277E-05,0,88425,-0,8258182,0,88425,0,1933623,0,88425,-0,5357748,0,06801923,1,05745E-05,0,88425,-0,9869535,0,88425,0,0443122,0,88425,-0,3544976
0,06853846,1,779202E-05,0,891,-0,8298466,0,891,0,1893339,0,891,-0,5357748,0,06853846,1,174945E-05,0,891,-0,9950103,0,891,0,0443122,0,891,-0,3504692
0,0690577,1,628138E-05,0,89775,-0,833875,0,89775,0,1812772,0,89775,-0,5398031,0,0690577,1,09102E-05,0,89775,-0,9909819,0,89775,0,04834058,0,89775,-0,3504692
0,06957693,1,460288E-05,0,9045,-0,8419318,0,9045,0,1772488,0,9045,-0,5438315,0,06957693,1,05745E-05,0,9045,-0,9909819,0,9045,0,05236896,0,9045,-0,358526
0,07009616,1,594568E-05,0,91125,-0,8379034,0,91125,0,169192,0,91125,-0,5357748,0,07009616,9,231708E-06,0,91125,-0,9869535,0,91125,0,05236896,0,91125,-0,358526
0,07061539,1,695277E-05,0,918,-0,833875,0,918,0,169192,0,918,-0,5357748,0,07061539,7,217517E-06,0,918,-0,9829252,0,918,0,04028382,0,918,-0,3625543
0,07113462,1,644923E-05,0,92475,-0,8298466,0,92475,0,169192,0,92475,-0,5196612,0,07113462,7,217517E-06,0,92475,-0,9748684,0,92475,0,0443122,0,92475,-0,3544976
0,07165385,1,460288E-05,0,9315,-0,833875,0,9315,0,1812772,0,9315,-0,5116045,0,07165385,8,560311E-06,0,9315,-0,9748684,0,9315,0,04028382,0,9315,-0,3665827
0,07217308,1,15816E-05,0,93825,-0,8379034,0,93825,0,2014191,0,93825,-0,4995193,0,07217308,9,231708E-06,0,93825,-0,9668117,0,93825,0,03222705,0,93825,-0,3665827
0,0726923,8,560311E-06,0,945,-0,8419318,0,945,0,2175326,0,945,-0,4914626,0,0726923,7,888914E-06,0,945,-0,9627832,0,945,0,03222705,0,945,-0,3826963
0,07321154,7,721065E-06,0,95175,-0,8379034,0,95175,0,2296178,0,95175,-0,4914626,0,07321154,4,699778E-06,0,95175,-0,9506981,0,95175,0,02417029,0,95175,-0,390753
0,07373077,9,567407E-06,0,9585,-0,833875,0,9585,0,2457313,0,9585,-0,4793774,0,07373077,1,510643E-06,0,9585,-0,9547265,0,9585,0,02014191,0,9585,-0,390753
0,07425,9,903106E-06,0,96525,-0,8258182,0,96525,0,2578164,0,96525,-0,4511787,0,07425,6,713969E-07,0,96525,-0,9506981,0,96525,0,02417029,0,96525,-0,3867247
0,07476923,7,888914E-06,0,972,-0,8217899,0,972,0,2658732,0,972,-0,4310368,0,07476923,1,510643E-06,0,972,-0,9386129,0,972,0,02417029,0,972,-0,3544976
0,07528846,4,531929E-06,0,97875,-0,833875,0,97875,0,2819867,0,97875,-0,4390936,0,07528846,2,853437E-06,0,97875,-0,9386129,0,97875,0,0443122,0,97875,-0,3343557
0,07580769,2,349889E-06,0,9855,-0,8379034,0,9855,0,2900435,0,9855,-0,443122,0,07580769,4,028382E-06,0,9855,-0,9547265,0,9855,0,06848249,0,9855,-0,3182422
0,07632692,6,713969E-07,0,99225,-0,8298466,0,99225,0,2940719,0,99225,-0,4229801,0,07632692,5,203327E-06,0,99225,-0,97084,0,99225,0,0886244,0,99225,-0,3383841
0,07684615,-1,846342E-06,0,999,-0,8177615,0,999,0,2900435,0,999,-0,4149233,0,07684615,7,049668E-06,0,999,-0,9829252,0,999,0,08459602,0,999,-0,358526
0,07736538,-1,678492E-06,1,00575,-0,8177615,1,00575,0,2900435,1,00575,-0,4189517,0,07736538,7,721065E-06,1,00575,-0,9829252,1,00575,0,06042573,1,00575,-0,3826963
0,07788461,8,392462E-07,1,0125,-0,8137331,1,0125,0,2699016,1,0125,-0,4793774,0,07788461,7,721065E-06,1,0125,-0,9748684,1,0125,0,02417029,1,0125,-0,3786679
0,07840385,3,524834E-06,1,01925,-0,7935912,1,01925,0,2296178,1,01925,-0,5800869,0,07840385,8,056764E-06,1,01925,-0,9627832,1,01925,-0,004028382,1,01925,-0,3504692
0,07892308,9,903106E-06,1,026,-0,7653925,1,026,0,1409934,1,026,-0,6727397,0,07892308,9,399557E-06,1,026,-0,9547265,1,026,-0,03222705,1,026,-0,306157
0,07944231,1,527428E-05,1,03275,-0,7533074,1,03275,0,03625543,1,03275,-0,7089952,0,07944231,1,040665E-05,1,03275,-0,9547265,1,03275,-0,0886244,1,03275,-0,27393
0,07996154,1,594568E-05,1,0395,-0,7694209,1,0395,-0,06042573,1,0395,-0,664683,0,07996154,9,231708E-06,1,0395,-0,9788967,1,0395,-0,1450217,1,0395,-0,2255894
0,08048077,1,560998E-05,1,04625,-0,8258182,1,04625,-0,1087663,1,04625,-0,5760586,0,08048077,7,217517E-06,1,04625,-1,003067,1,04625,-0,136965,1,04625,-0,1651637
0,081,1,594568E-05,1,053,-0,9184711,1,053,-0,08459602,1,053,-0,4834058,0,081,5,874724E-06,1,053,-1,015152,1,053,-0,06848249,1,053,-0,1732204
0,08151923,1,527428E-05,1,05975,-1,019181,1,05975,-0,01611353,1,05975,-0,4471503,0,08151923,4,36408E-06,1,05975,-1,035294,1,05975,0,04028382,1,05975,-0,2296178
0,08203846,1,695277E-05,1,0665,-1,087663,1,0665,0,07251087,1,0665,-0,4793774,0,08203846,4,36408E-06,1,0665,-1,039322,1,0665,0,1530785,1,0665,-0,2981002
0,08255769,1,980621E-05,1,07325,-1,075578,1,07325,0,1651637,1,07325,-0,5438315,0,08255769,6,210422E-06,1,07325,-1,015152,1,07325,0,2094758,1,07325,-0,3222705
0,08307692,2,568093E-05,1,08,-0,9909819,1,08,0,2497597,1,08,-0,5841153,0,08307692,8,056764E-06,1,08,-0,9627832,1,08,0,1611353,1,08,-0,306157
0,08359616,3,105211E-05,1,08675,-0,8580453,1,08675,0,3424124,1,08675,-0,5921721,0,08359616,7,385367E-06,1,08675,-0,8943007,1,08675,0,05639734,1,08675,-0,2497597
0,08411539,3,239491E-05,1,0935,-0,7170519,1,0935,0,4310368,1,0935,-0,5680018,0,08411539,6,881819E-06,1,0935,-0,8177615,1,0935,-0,03625543,1,0935,-0,2054475
0,08463462,2,735943E-05,1,10025,-0,6002288,1,10025,0,5035477,1,10025,-0,5075761,0,08463462,6,54612E-06,1,10025,-0,7653925,1,10025,-0,1087663,1,10025,-0,2094758
0,08515385,2,265965E-05,1,107,-0,5398031,1,107,0,5317464,1,107,-0,4511787,0,08515385,4,196231E-06,1,107,-0,7774777,1,107,-0,1248798,1,107,-0,2255894
0,08567308,1,980621E-05,1,11375,-0,5518883,1,11375,0,4834058,1,11375,-0,443122,0,08567308,4,699778E-06,1,11375,-0,8580453,1,11375,-0,1289082,1,11375,-0,2296178
0,08619231,1,728847E-05,1,1205,-0,6364843,1,1205,0,358526,1,1205,-0,4471503,0,08619231,7,553216E-06,1,1205,-0,9869535,1,1205,-0,1248798,1,1205,-0,2497597
0,08671154,1,594568E-05,1,12725,-0,7452506,1,12725,0,1973907,1,12725,-0,4713207,0,08671154,8,560311E-06,1,12725,-1,099748,1,12725,-0,05236896,1,12725,-0,2658732
0,08723077,1,560998E-05,1,134,-0,8459601,1,134,0,0443122,1,134,-0,5116045,0,08723077,8,056764E-06,1,134,-1,164202,1,134,0,02819867,1,134,-0,2819867
0,08775,1,359579E-05,1,14075,-0,9063858,1,14075,-0,04834058,1,14075,-0,5196612,0,08775,7,721065E-06,1,14075,-1,180316,1,14075,0,09265278,1,14075,-0,2981002
0,08826923,1,258869E-05,1,1475,-0,9386129,1,1475,-0,0886244,1,1475,-0,5196612,0,08826923,8,056764E-06,1,1475,-1,160174,1,1475,0,09668116,1,1475,-0,3262989
0,08878846,1,258869E-05,1,15425,-0,9506981,1,15425,-0,06042573,1,15425,-0,5116045,0,08878846,9,231708E-06,1,15425,-1,123919,1,15425,0,05236896,1,15425,-0,3424124
0,0893077,1,225299E-05,1,161,-0,9506981,1,161,0,01611353,1,161,-0,4834058,0,0893077,1,007095E-05,1,161,-1,063493,1,161,0,008056764,1,161,-0,3544976
0,08982693,1,275654E-05,1,16775,-0,9386129,1,16775,0,1127947,1,16775,-0,4632639,0,08982693,8,89601E-06,1,16775,-1,007095,1,16775,-0,004028382,1,16775,-0,3343557
0,09034616,1,19173E-05,1,1745,-0,9184711,1,1745,0,1973907,1,1745,-0,4552071,0,09034616,7,217517E-06,1,1745,-0,9668117,1,1745,0,02417029,1,1745,-0,3303273
0,09086539,9,231708E-06,1,18125,-0,8862439,1,18125,0,2618448,1,18125,-0,4874342,0,09086539,8,224613E-06,1,18125,-0,9506981,1,18125,0,08056764,1,18125,-0,3142138
0,09138462,6,71397E-06,1,188,-0,833875,1,188,0,2981002,1,188,-0,5075761,0,09138462,9,063859E-06,1,188,-0,9386129,1,188,0,1168231,1,188,-0,306157
0,09190385,5,874724E-06,1,19475,-0,7774777,1,19475,0,3101854,1,19475,-0,4995193,0,09190385,9,903106E-06,1,19475,-0,9426414,1,19475,0,169192,1,19475,-0,3262989
0,09242308,9,903106E-06,1,2015,-0,7130235,1,2015,0,3021286,1,2015,-0,4713207,0,09242308,1,02388E-05,1,2015,-0,9305562,1,2015,0,2094758,1,2015,-0,3464408
0,09294231,1,359579E-05,1,20825,-0,664683,1,20825,0,2779583,1,20825,-0,4914626,0,09294231,9,231708E-06,1,20825,-0,9063858,1,20825,0,1973907,1,20825,-0,3544976
0,09346154,1,510643E-05,1,215,-0,664683,1,215,0,2537881,1,215,-0,5317464,0,09346154,8,224613E-06,1,215,-0,8781872,1,215,0,169192,1,215,-0,358526
0,09398077,1,477073E-05,1,22175,-0,7170519,1,22175,0,2255894,1,22175,-0,5438315,0,09398077,7,553216E-06,1,22175,-0,866102,1,22175,0,1450217,1,22175,-0,3303273
0,0945,1,493858E-05,1,2285,-0,8056763,1,2285,0,2054475,1,2285,-0,4995193,0,0945,5,203327E-06,1,2285,-0,8781872,1,2285,0,0886244,1,2285,-0,3142138
0,09501923,1,443503E-05,1,23525,-0,8983291,1,23525,0,2014191,1,23525,-0,4592355,0,09501923,3,860533E-06,1,23525,-0,9224994,1,23525,0,02014191,1,23525,-0,2779583
0,09553846,1,309224E-05,1,242,-0,9668117,1,242,0,2135042,1,242,-0,4672923,0,09553846,5,706875E-06,1,242,-0,97084,1,242,-0,03222705,1,242,-0,2618448
0,09605769,1,09102E-05,1,24875,-0,9748684,1,24875,0,2255894,1,24875,-0,4834058,0,09605769,7,721065E-06,1,24875,-1,011124,1,24875,-0,05639734,1,24875,-0,2497597
0,09657692,9,903106E-06,1,2555,-0,9345846,1,2555,0,2135042,1,2555,-0,495491,0,09657692,8,392462E-06,1,2555,-1,047379,1,2555,-0,06445411,1,2555,-0,2497597
0,09709615,1,107805E-05,1,26225,-0,8620737,1,26225,0,2014191,1,26225,-0,4793774,0,09709615,7,553216E-06,1,26225,-1,039322,1,26225,-0,06042573,1,26225,-0,2578164
0,09761538,1,19173E-05,1,269,-0,7815061,1,269,0,1651637,1,269,-0,4753491,0,09761538,7,888914E-06,1,269,-1,023209,1,269,-0,06042573,1,269,-0,2618448
0,09813461,1,007095E-05,1,27575,-0,7130235,1,27575,0,1530785,1,27575,-0,495491,0,09813461,6,881819E-06,1,27575,-0,9909819,1,27575,-0,06848249,1,27575,-0,2699016
0,09865385,7,888914E-06,1,2825,-0,7009384,1,2825,0,1490501,1,2825,-0,5035477,0,09865385,4,36408E-06,1,2825,-0,97084,1,2825,-0,06848249,1,2825,-0,2779583
0,09917308,5,539025E-06,1,28925,-0,7412222,1,28925,0,1530785,1,28925,-0,4914626,0,09917308,3,860533E-06,1,28925,-0,9466697,1,28925,-0,06042573,1,28925,-0,2699016
0,09969231,3,189135E-06,1,296,-0,8217899,1,296,0,1772488,1,296,-0,4753491,0,09969231,4,867628E-06,1,296,-0,9426414,1,296,-0,04028382,1,296,-0,2618448
0,1002115,2,18204E-06,1,30275,-0,9023575,1,30275,0,221561,1,30275,-0,4632639,0,1002115,3,189135E-06,1,30275,-0,9426414,1,30275,0,1,30275,-0,2457313
0,1007308,2,014191E-06,1,3095,-0,9627832,1,3095,0,2618448,1,3095,-0,4511787,0,1007308,2,18204E-06,1,3095,-0,9627832,1,3095,0,03222705,1,3095,-0,2296178
0,10125,1,174945E-06,1,31625,-0,9668117,1,31625,0,2860151,1,31625,-0,4753491,0,10125,3,189135E-06,1,31625,-0,9829252,1,31625,0,04834058,1,31625,-0,221561
0,1017692,1,007096E-06,1,323,-0,9466697,1,323,0,306157,1,323,-0,4713207,0,1017692,4,36408E-06,1,323,-1,007095,1,323,0,06445411,1,323,-0,2296178
0,1022885,-1,174945E-06,1,32975,-0,8862439,1,32975,0,3262989,1,32975,-0,4672923,0,1022885,5,874724E-06,1,32975,-1,039322,1,32975,0,08459602,1,32975,-0,2537881
0,1028077,-2,517739E-06,1,3365,-0,833875,1,3365,0,3222705,1,3365,-0,4713207,0,1028077,7,217517E-06,1,3365,-1,067521,1,3365,0,08056764,1,3365,-0,2578164
0,1033269,-1,007096E-06,1,34325,-0,7935912,1,34325,0,306157,1,34325,-0,4592355,0,1033269,9,063859E-06,1,34325,-1,075578,1,34325,0,06042573,1,34325,-0,2618448
0,1038462,0,1,35,-0,7734493,1,35,0,2779583,1,35,-0,4672923,0,1038462,1,19173E-05,1,35,-1,075578,1,35,0,04028382,1,35,-0,2779583
0,1043654,-1,174945E-06,1,35675,-0,7653925,1,35675,0,2296178,1,35675,-0,4914626,0,1043654,1,560998E-05,1,35675,-1,043351,1,35675,0,004028382,1,35675,-0,2779583
0,1048846,-8,392462E-07,1,3635,-0,7774777,1,3635,0,169192,1,3635,-0,495491,0,1048846,1,661708E-05,1,3635,-1,011124,1,3635,-0,02819867,1,3635,-0,2779583
0,1054038,1,174945E-06,1,37025,-0,8056763,1,37025,0,1490501,1,37025,-0,4834058,0,1054038,1,560998E-05,1,37025,-0,9627832,1,37025,-0,01611353,1,37025,-0,2900435
0,1059231,3,860533E-06,1,377,-0,8419318,1,377,0,1571069,1,377,-0,4753491,0,1059231,1,527428E-05,1,377,-0,9345846,1,377,0,004028382,1,377,-0,2860151
0,1064423,8,224613E-06,1,38375,-0,8741588,1,38375,0,1812772,1,38375,-0,4914626,0,1064423,1,05745E-05,1,38375,-0,9506981,1,38375,-0,01611353,1,38375,-0,27393
0,1069615,1,05745E-05,1,3905,-0,9023575,1,3905,0,2094758,1,3905,-0,5035477,0,1069615,7,721065E-06,1,3905,-0,9788967,1,3905,-0,02014191,1,3905,-0,2578164
0,1074808,1,19173E-05,1,39725,-0,9104142,1,39725,0,2497597,1,39725,-0,4995193,0,1074808,8,224613E-06,1,39725,-1,015152,1,39725,-0,008056764,1,39725,-0,2537881
0,108,1,242084E-05,1,404,-0,8862439,1,404,0,2658732,1,404,-0,4914626,0,108,7,553216E-06,1,404,-1,035294,1,404,-0,02417029,1,404,-0,2417029
0,1085192,1,208515E-05,1,41075,-0,8499885,1,41075,0,2779583,1,41075,-0,4511787,0,1085192,7,217517E-06,1,41075,-1,043351,1,41075,-0,0443122,1,41075,-0,2417029
0,1090385,1,258869E-05,1,4175,-0,8097047,1,4175,0,27393,1,4175,-0,4390936,0,1090385,8,224613E-06,1,4175,-1,019181,1,4175,-0,04028382,1,4175,-0,2417029
0,1095577,1,15816E-05,1,42425,-0,7734493,1,42425,0,2699016,1,42425,-0,4753491,0,1095577,7,217517E-06,1,42425,-0,9829252,1,42425,-0,004028382,1,42425,-0,2497597
0,1100769,1,15816E-05,1,431,-0,7694209,1,431,0,2417029,1,431,-0,4632639,0,1100769,7,553216E-06,1,431,-0,9587549,1,431,0,02417029,1,431,-0,2699016
0,1105962,1,577783E-05,1,43775,-0,7855344,1,43775,0,2054475,1,43775,-0,4552071,0,1105962,1,007095E-05,1,43775,-0,9587549,1,43775,0,04028382,1,43775,-0,2618448
0,1111154,1,997406E-05,1,4445,-0,8056763,1,4445,0,1651637,1,4445,-0,4632639,0,1111154,1,040665E-05,1,4445,-0,9668117,1,4445,0,04028382,1,4445,-0,2618448
0,1116346,1,997406E-05,1,45125,-0,8258182,1,45125,0,136965,1,45125,-0,4834058,0,1116346,1,05745E-05,1,45125,-0,9748684,1,45125,0,03625543,1,45125,-0,2618448
0,1121539,1,896696E-05,1,458,-0,8419318,1,458,0,1289082,1,458,-0,4834058,0,1121539,1,19173E-05,1,458,-0,9627832,1,458,0,0443122,1,458,-0,2779583
0,1126731,1,712062E-05,1,46475,-0,8540169,1,46475,0,1732204,1,46475,-0,4672923,0,1126731,1,225299E-05,1,46475,-0,9426414,1,46475,0,03625543,1,46475,-0,2819867
0,1131923,1,879911E-05,1,4715,-0,866102,1,4715,0,2296178,1,4715,-0,4672923,0,1131923,1,174945E-05,1,4715,-0,9466697,1,4715,0,03222705,1,4715,-0,2779583
0,1137115,2,098116E-05,1,47825,-0,8781872,1,47825,0,2819867,1,47825,-0,4672923,0,1137115,9,903106E-06,1,47825,-0,9627832,1,47825,0,04028382,1,47825,-0,2417029
0,1142308,2,165255E-05,1,485,-0,8902723,1,485,0,3101854,1,485,-0,4229801,0,1142308,9,903106E-06,1,485,-0,9869535,1,485,0,04028382,1,485,-0,2336462
0,11475,2,098116E-05,1,49175,-0,8902723,1,49175,0,3101854,1,49175,-0,4108949,0,11475,9,231708E-06,1,49175,-1,003067,1,49175,0,05236896,1,49175,-0,2054475
0,1152692,1,795987E-05,1,4985,-0,8781872,1,4985,0,2779583,1,4985,-0,4189517,0,1152692,8,89601E-06,1,4985,-1,027237,1,4985,0,06445411,1,4985,-0,2094758
0,1157885,1,359579E-05,1,50525,-0,8540169,1,50525,0,2618448,1,50525,-0,4592355,0,1157885,7,217517E-06,1,50525,-1,027237,1,50525,0,06042573,1,50525,-0,2175326
0,1163077,1,15816E-05,1,512,-0,8177615,1,512,0,2537881,1,512,-0,4672923,0,1163077,5,203327E-06,1,512,-1,015152,1,512,0,02819867,1,512,-0,2255894
0,1168269,1,141375E-05,1,51875,-0,801648,1,51875,0,2497597,1,51875,-0,4270085,0,1168269,6,042573E-06,1,51875,-0,9909819,1,51875,-0,004028382,1,51875,-0,2296178
0,1173462,1,05745E-05,1,5255,-0,801648,1,5255,0,2336462,1,5255,-0,4108949,0,1173462,8,224613E-06,1,5255,-0,9627832,1,5255,-0,02014191,1,5255,-0,2255894
0,1178654,1,02388E-05,1,53225,-0,8097047,1,53225,0,2054475,1,53225,-0,4108949,0,1178654,8,224613E-06,1,53225,-0,9426414,1,53225,-0,03625543,1,53225,-0,221561
0,1183846,1,05745E-05,1,539,-0,8137331,1,539,0,1973907,1,539,-0,4270085,0,1183846,6,54612E-06,1,539,-0,9386129,1,539,-0,04834058,1,539,-0,221561
0,1189038,8,89601E-06,1,54575,-0,8177615,1,54575,0,1893339,1,54575,-0,4592355,0,1189038,7,553216E-06,1,54575,-0,9305562,1,54575,-0,02417029,1,54575,-0,2135042
0,1194231,6,881819E-06,1,5525,-0,8177615,1,5525,0,1651637,1,5525,-0,4552071,0,1194231,7,721065E-06,1,5525,-0,9426414,1,5525,0,008056764,1,5525,-0,2175326
0,1199423,6,210422E-06,1,55925,-0,8217899,1,55925,0,1732204,1,55925,-0,4592355,0,1199423,6,210422E-06,1,55925,-0,9788967,1,55925,0,01208515,1,55925,-0,2175326
0,1204615,4,196231E-06,1,566,-0,8258182,1,566,0,2094758,1,566,-0,4552071,0,1204615,5,203327E-06,1,566,-0,9909819,1,566,0,1,566,-0,221561
0,1209808,1,678492E-06,1,57275,-0,833875,1,57275,0,2457313,1,57275,-0,4390936,0,1209808,4,531929E-06,1,57275,-0,9990387,1,57275,0,1,57275,-0,2336462
0,1215,5,035478E-07,1,5795,-0,8499885,1,5795,0,2819867,1,5795,-0,4310368,0,1215,6,210422E-06,1,5795,-0,9950103,1,5795,0,008056764,1,5795,-0,2296178
0,1220192,1,678492E-07,1,58625,-0,8822156,1,58625,0,3182422,1,58625,-0,4270085,0,1220192,7,888914E-06,1,58625,-0,9788967,1,58625,0,02417029,1,58625,-0,2175326
0,1225385,-6,713969E-07,1,593,-0,9063858,1,593,0,3262989,1,593,-0,4108949,0,1225385,7,721065E-06,1,593,-0,9829252,1,593,0,06445411,1,593,-0,2094758
0,1230577,-2,853437E-06,1,59975,-0,9104142,1,59975,0,306157,1,59975,-0,390753,0,1230577,7,888914E-06,1,59975,-0,9950103,1,59975,0,1047379,1,59975,-0,2054475
0,1235769,-2,517739E-06,1,6065,-0,8781872,1,6065,0,2578164,1,6065,-0,4028382,0,1235769,9,903106E-06,1,6065,-1,011124,1,6065,0,08459602,1,6065,-0,2175326
0,1240962,3,189135E-06,1,61325,-0,8258182,1,61325,0,1772488,1,61325,-0,4149233,0,1240962,1,040665E-05,1,61325,-1,007095,1,61325,0,07251087,1,61325,-0,2336462
0,1246154,8,224613E-06,1,62,-0,7533074,1,62,0,1007095,1,62,-0,4350652,0,1246154,8,728161E-06,1,62,-0,9748684,1,62,0,06848249,1,62,-0,2658732
0,1251346,9,231708E-06,1,62675,-0,7089952,1,62675,0,08459602,1,62675,-0,4511787,0,1251346,7,049668E-06,1,62675,-0,9426414,1,62675,0,05236896,1,62675,-0,2779583
0,1256538,8,392462E-06,1,6335,-0,7049668,1,6335,0,1087663,1,6335,-0,4511787,0,1256538,7,888914E-06,1,6335,-0,9144427,1,6335,0,03625543,1,6335,-0,2618448
0,1261731,8,560311E-06,1,64025,-0,7452506,1,64025,0,1812772,1,64025,-0,4471503,0,1261731,1,05745E-05,1,64025,-0,8983291,1,64025,0,03222705,1,64025,-0,2376745
0,1266923,1,040665E-05,1,647,-0,8217899,1,647,0,2497597,1,647,-0,4672923,0,1266923,1,225299E-05,1,647,-0,8983291,1,647,0,03222705,1,647,-0,2094758
0,1272115,1,258869E-05,1,65375,-0,8983291,1,65375,0,3142138,1,65375,-0,4672923,0,1272115,8,89601E-06,1,65375,-0,9184711,1,65375,0,01611353,1,65375,-0,1893339
0,1277308,1,15816E-05,1,6605,-0,9547265,1,6605,0,3504692,1,6605,-0,4189517,0,1277308,6,54612E-06,1,6605,-0,9547265,1,6605,-0,01611353,1,6605,-0,1853056
0,12825,1,05745E-05,1,66725,-0,9668117,1,66725,0,3424124,1,66725,-0,3706111,0,12825,7,553216E-06,1,66725,-0,9950103,1,66725,-0,02417029,1,66725,-0,1853056
0,1287692,1,12459E-05,1,674,-0,9104142,1,674,0,3101854,1,674,-0,3947814,0,1287692,8,224613E-06,1,674,-1,043351,1,674,-0,01611353,1,674,-0,2094758
0,1292885,1,05745E-05,1,68075,-0,8379034,1,68075,0,2779583,1,68075,-0,4350652,0,1292885,7,721065E-06,1,68075,-1,067521,1,68075,-0,01208515,1,68075,-0,2175326
0,1298077,1,242084E-05,1,6875,-0,7653925,1,6875,0,221561,1,6875,-0,4511787,0,1298077,7,888914E-06,1,6875,-1,067521,1,6875,-0,008056764,1,6875,-0,221561
0,1303269,1,829557E-05,1,69425,-0,7210803,1,69425,0,1611353,1,69425,-0,4511787,0,1303269,9,231708E-06,1,69425,-1,043351,1,69425,0,02014191,1,69425,-0,2296178
0,1308462,2,299535E-05,1,701,-0,7251087,1,701,0,1289082,1,701,-0,4390936,0,1308462,9,231708E-06,1,701,-1,007095,1,701,0,0443122,1,701,-0,2457313
0,1313654,2,265965E-05,1,70775,-0,7653925,1,70775,0,1450217,1,70775,-0,4350652,0,1313654,6,54612E-06,1,70775,-0,9627832,1,70775,0,04834058,1,70775,-0,2497597
0,1318846,1,930266E-05,1,7145,-0,8258182,1,7145,0,1732204,1,7145,-0,4350652,0,1318846,5,035477E-06,1,7145,-0,9345846,1,7145,0,03222705,1,7145,-0,2376745
0,1324039,1,779202E-05,1,72125,-0,8862439,1,72125,0,2255894,1,72125,-0,4511787,0,1324039,6,71397E-06,1,72125,-0,9104142,1,72125,0,0443122,1,72125,-0,2175326
0,1329231,2,030976E-05,1,728,-0,9184711,1,728,0,2618448,1,728,-0,4713207,0,1329231,7,049668E-06,1,728,-0,9104142,1,728,0,05639734,1,728,-0,2175326
0,1334423,2,131685E-05,1,73475,-0,9224994,1,73475,0,3021286,1,73475,-0,4632639,0,1334423,4,36408E-06,1,73475,-0,9224994,1,73475,0,04028382,1,73475,-0,221561
0,1339615,1,863126E-05,1,7415,-0,8902723,1,7415,0,3182422,1,7415,-0,443122,0,1339615,3,189135E-06,1,7415,-0,9547265,1,7415,0,02014191,1,7415,-0,2296178
0,1344808,1,628138E-05,1,74825,-0,8499885,1,74825,0,306157,1,74825,-0,4310368,0,1344808,2,517739E-06,1,74825,-0,9990387,1,74825,0,004028382,1,74825,-0,2336462
0,135,1,812772E-05,1,755,-0,8097047,1,755,0,2819867,1,755,-0,4471503,0,135,0,1,755,-1,019181,1,755,-0,008056764,1,755,-0,2417029
0,1355192,1,980621E-05,1,76175,-0,7895628,1,76175,0,2376745,1,76175,-0,4390936,0,1355192,-5,035478E-07,1,76175,-1,015152,1,76175,-0,01208515,1,76175,-0,2376745
0,1360385,1,863126E-05,1,7685,-0,7774777,1,7685,0,2094758,1,7685,-0,4471503,0,1360385,3,524834E-06,1,7685,-0,9909819,1,7685,-0,01208515,1,7685,-0,2255894
0,1365577,1,728847E-05,1,77525,-0,7935912,1,77525,0,1933623,1,77525,-0,4270085,0,1365577,7,888914E-06,1,77525,-0,9587549,1,77525,0,02819867,1,77525,-0,2175326
0,1370769,1,795987E-05,1,782,-0,8217899,1,782,0,1853056,1,782,-0,3947814,0,1370769,8,560311E-06,1,782,-0,9305562,1,782,0,06445411,1,782,-0,2135042
0,1375962,1,997406E-05,1,78875,-0,866102,1,78875,0,1893339,1,78875,-0,3867247,0,1375962,7,217517E-06,1,78875,-0,9184711,1,78875,0,04834058,1,78875,-0,2094758
0,1381154,1,947051E-05,1,7955,-0,8741588,1,7955,0,1812772,1,7955,-0,3947814,0,1381154,7,553216E-06,1,7955,-0,9265279,1,7955,0,0443122,1,7955,-0,2135042
0,1386346,1,762417E-05,1,80225,-0,866102,1,80225,0,1812772,1,80225,-0,4189517,0,1386346,8,560311E-06,1,80225,-0,9345846,1,80225,0,06445411,1,80225,-0,2255894
0,1391539,1,527428E-05,1,809,-0,8379034,1,809,0,2094758,1,809,-0,4471503,0,1391539,9,903106E-06,1,809,-0,97084,1,809,0,06445411,1,809,-0,2296178
0,1396731,1,19173E-05,1,81575,-0,801648,1,81575,0,2497597,1,81575,-0,4511787,0,1396731,1,12459E-05,1,81575,-1,003067,1,81575,0,05639734,1,81575,-0,2296178
0,1401923,9,231708E-06,1,8225,-0,7734493,1,8225,0,2819867,1,8225,-0,443122,0,1401923,1,05745E-05,1,8225,-1,007095,1,8225,0,02014191,1,8225,-0,2175326
0,1407115,9,903106E-06,1,82925,-0,7774777,1,82925,0,2981002,1,82925,-0,4189517,0,1407115,5,203327E-06,1,82925,-0,9909819,1,82925,0,1,82925,-0,2175326
0,1412308,1,15816E-05,1,836,-0,8097047,1,836,0,2940719,1,836,-0,4270085,0,1412308,-3,356985E-07,1,836,-0,9748684,1,836,-0,004028382,1,836,-0,2175326
0,14175,1,19173E-05,1,84275,-0,8499885,1,84275,0,2819867,1,84275,-0,4471503,0,14175,-1,678492E-07,1,84275,-0,9587549,1,84275,0,008056764,1,84275,-0,2135042
0,1422692,1,05745E-05,1,8495,-0,8943007,1,8495,0,2699016,1,8495,-0,4632639,0,1422692,1,846342E-06,1,8495,-0,9506981,1,8495,0,02417029,1,8495,-0,2135042
0,1427885,8,056764E-06,1,85625,-0,9104142,1,85625,0,2497597,1,85625,-0,4552071,0,1427885,5,706875E-06,1,85625,-0,9506981,1,85625,0,03222705,1,85625,-0,2094758
0,1433077,7,888914E-06,1,863,-0,9104142,1,863,0,2376745,1,863,-0,4350652,0,1433077,7,049668E-06,1,863,-0,9748684,1,863,0,04028382,1,863,-0,2094758
0,1438269,1,12459E-05,1,86975,-0,8943007,1,86975,0,2497597,1,86975,-0,4229801,0,1438269,4,531929E-06,1,86975,-0,9950103,1,86975,0,0443122,1,86975,-0,2094758
0,1443462,1,326009E-05,1,8765,-0,8499885,1,8765,0,2618448,1,8765,-0,4149233,0,1443462,3,021286E-06,1,8765,-1,003067,1,8765,0,04028382,1,8765,-0,221561
0,1448654,1,460288E-05,1,88325,-0,801648,1,88325,0,2699016,1,88325,-0,4350652,0,1448654,4,36408E-06,1,88325,-1,003067,1,88325,0,02417029,1,88325,-0,2175326
0,1453846,1,426719E-05,1,89,-0,7734493,1,89,0,2819867,1,89,-0,4270085,0,1453846,6,881819E-06,1,89,-0,9990387,1,89,-0,02819867,1,89,-0,2094758
0,1459038,8,89601E-06,1,89675,-0,7573358,1,89675,0,2981002,1,89675,-0,4270085,0,1459038,9,735257E-06,1,89675,-0,9829252,1,89675,-0,07653925,1,89675,-0,2014191
0,1464231,3,189135E-06,1,9035,-0,7613642,1,9035,0,2940719,1,9035,-0,4310368,0,1464231,1,19173E-05,1,9035,-0,9748684,1,9035,-0,09668116,1,9035,-0,1853056
0,1469423,3,021286E-06,1,91025,-0,7815061,1,91025,0,2699016,1,91025,-0,4390936,0,1469423,1,15816E-05,1,91025,-0,9668117,1,91025,-0,08056764,1,91025,-0,2054475
0,1474615,5,203327E-06,1,917,-0,8217899,1,917,0,2255894,1,917,-0,4270085,0,1474615,1,258869E-05,1,917,-0,9748684,1,917,-0,06445411,1,917,-0,2336462
0,1479808,7,553216E-06,1,92375,-0,8620737,1,92375,0,1772488,1,92375,-0,4028382,0,1479808,1,292439E-05,1,92375,-1,003067,1,92375,-0,02819867,1,92375,-0,2417029
0,1485,8,224613E-06,1,9305,-0,8701304,1,9305,0,1248798,1,9305,-0,4270085,0,1485,1,326009E-05,1,9305,-1,035294,1,9305,0,01611353,1,9305,-0,2497597
0,1490192,7,049668E-06,1,93725,-0,866102,1,93725,0,1127947,1,93725,-0,443122,0,1490192,1,426719E-05,1,93725,-1,035294,1,93725,0,06848249,1,93725,-0,2537881
0,1495385,5,203327E-06,1,944,-0,8540169,1,944,0,1329366,1,944,-0,4310368,0,1495385,1,326009E-05,1,944,-1,011124,1,944,0,1248798,1,944,-0,2618448
0,1500577,-6,713969E-07,1,95075,-0,8459601,1,95075,0,1812772,1,95075,-0,4390936,0,1500577,1,292439E-05,1,95075,-0,9748684,1,95075,0,1450217,1,95075,-0,2537881
0,1505769,-7,721065E-06,1,9575,-0,833875,1,9575,0,2457313,1,9575,-0,4632639,0,1505769,1,292439E-05,1,9575,-0,9506981,1,9575,0,1450217,1,9575,-0,2376745
0,1510962,-9,735257E-06,1,96425,-0,8419318,1,96425,0,2940719,1,96425,-0,4511787,0,1510962,1,05745E-05,1,96425,-0,9224994,1,96425,0,1409934,1,96425,-0,2255894
0,1516154,-5,874724E-06,1,971,-0,8459601,1,971,0,3222705,1,971,-0,4229801,0,1516154,8,560311E-06,1,971,-0,9104142,1,971,0,1329366,1,971,-0,2296178
0,1521346,1,174945E-06,1,97775,-0,8379034,1,97775,0,3464408,1,97775,-0,4108949,0,1521346,7,553216E-06,1,97775,-0,9224994,1,97775,0,09265278,1,97775,-0,2175326
0,1526538,7,217517E-06,1,9845,-0,8056763,1,9845,0,3343557,1,9845,-0,4229801,0,1526538,6,378271E-06,1,9845,-0,9386129,1,9845,0,03625543,1,9845,-0,221561
0,1531731,1,02388E-05,1,99125,-0,7613642,1,99125,0,3222705,1,99125,-0,4270085,0,1531731,7,049668E-06,1,99125,-0,9506981,1,99125,-0,01208515,1,99125,-0,221561
0,1536923,1,376364E-05,1,998,-0,7210803,1,998,0,3021286,1,998,-0,4632639,0,1536923,9,567407E-06,1,998,-0,9506981,1,998,-0,06445411,1,998,-0,2094758
0,1542115,1,678492E-05,2,00475,-0,7130235,2,00475,0,2819867,2,00475,-0,4632639,0,1542115,9,399557E-06,2,00475,-0,9506981,2,00475,-0,1127947,2,00475,-0,1933623
0,1547308,1,728847E-05,2,0115,-0,7533074,2,0115,0,2618448,2,0115,-0,4552071,0,1547308,7,553216E-06,2,0115,-0,9587549,2,0115,-0,1450217,2,0115,-0,1893339
0,15525,1,846342E-05,2,01825,-0,8177615,2,01825,0,2457313,2,01825,-0,4390936,0,15525,7,888914E-06,2,01825,-0,9668117,2,01825,-0,1571069,2,01825,-0,1651637
0,1557692,1,913481E-05,2,025,-0,9023575,2,025,0,2336462,2,025,-0,4149233,0,1557692,8,560311E-06,2,025,-0,9950103,2,025,-0,136965,2,025,-0,1611353
0,1562885,1,896696E-05,2,03175,-0,9668117,2,03175,0,2175326,2,03175,-0,3988098,0,1562885,1,05745E-05,2,03175,-1,027237,2,03175,-0,0886244,2,03175,-0,169192
0,1568077,1,728847E-05,2,0385,-0,9788967,2,0385,0,1893339,2,0385,-0,390753,0,1568077,1,174945E-05,2,0385,-1,059464,2,0385,-0,03222705,2,0385,-0,2014191
0,1573269,1,577783E-05,2,04525,-0,9305562,2,04525,0,169192,2,04525,-0,3947814,0,1573269,1,05745E-05,2,04525,-1,07155,2,04525,0,03625543,2,04525,-0,2336462
0,1578462,1,661708E-05,2,052,-0,8580453,2,052,0,1571069,2,052,-0,4068666,0,1578462,9,903106E-06,2,052,-1,047379,2,052,0,09668116,2,052,-0,2417029
0,1583654,1,795987E-05,2,05875,-0,7774777,2,05875,0,1530785,2,05875,-0,4270085,0,1583654,9,231708E-06,2,05875,-1,011124,2,05875,0,1409934,2,05875,-0,2578164
0,1588846,2,131685E-05,2,0655,-0,7210803,2,0655,0,1651637,2,0655,-0,4390936,0,1588846,7,888914E-06,2,0655,-0,9547265,2,0655,0,1812772,2,0655,-0,2578164
0,1594038,2,333105E-05,2,07225,-0,7049668,2,07225,0,2054475,2,07225,-0,4189517,0,1594038,1,040665E-05,2,07225,-0,8983291,2,07225,0,1933623,2,07225,-0,2336462
0,1599231,2,198825E-05,2,079,-0,7331654,2,079,0,2779583,2,079,-0,4350652,0,1599231,1,275654E-05,2,079,-0,8540169,2,079,0,1651637,2,079,-0,2175326
0,1604423,1,997406E-05,2,08575,-0,7613642,2,08575,0,3424124,2,08575,-0,4350652,0,1604423,1,040665E-05,2,08575,-0,8258182,2,08575,0,1208515,2,08575,-0,2054475
0,1609615,1,762417E-05,2,0925,-0,8097047,2,0925,0,3947814,2,0925,-0,4068666,0,1609615,8,224613E-06,2,0925,-0,8298466,2,0925,0,1047379,2,0925,-0,1973907
0,1614808,1,527428E-05,2,09925,-0,8580453,2,09925,0,4270085,2,09925,-0,4189517,0,1614808,7,553216E-06,2,09925,-0,8781872,2,09925,0,07251087,2,09925,-0,2014191
0,162,1,292439E-05,2,106,-0,8902723,2,106,0,4068666,2,106,-0,4511787,0,162,8,89601E-06,2,106,-0,9547265,2,106,-0,008056764,2,106,-0,1853056
0,1625192,9,231708E-06,2,11275,-0,9023575,2,11275,0,3383841,2,11275,-0,443122,0,1625192,1,05745E-05,2,11275,-1,019181,2,11275,-0,0886244,2,11275,-0,1772488
0,1630385,7,888914E-06,2,1195,-0,8943007,2,1195,0,2658732,2,1195,-0,4229801,0,1630385,1,02388E-05,2,1195,-1,059464,2,1195,-0,1047379,2,1195,-0,1732204
0,1635577,9,735257E-06,2,12625,-0,8620737,2,12625,0,1973907,2,12625,-0,4028382,0,1635577,1,05745E-05,2,12625,-1,07155,2,12625,-0,1087663,2,12625,-0,1893339
0,1640769,1,225299E-05,2,133,-0,8379034,2,133,0,1571069,2,133,-0,3988098,0,1640769,1,19173E-05,2,133,-1,067521,2,133,-0,08459602,2,133,-0,1893339
0,1645962,1,460288E-05,2,13975,-0,8298466,2,13975,0,136965,2,13975,-0,4108949,0,1645962,1,19173E-05,2,13975,-1,063493,2,13975,-0,06445411,2,13975,-0,1853056
0,1651154,1,628138E-05,2,1465,-0,8298466,2,1465,0,136965,2,1465,-0,3947814,0,1651154,1,19173E-05,2,1465,-1,047379,2,1465,-0,03222705,2,1465,-0,2014191
0,1656346,1,527428E-05,2,15325,-0,8258182,2,15325,0,1490501,2,15325,-0,3988098,0,1656346,1,359579E-05,2,15325,-1,023209,2,15325,0,02819867,2,15325,-0,1933623
0,1661538,1,258869E-05,2,16,-0,8097047,2,16,0,1651637,2,16,-0,4350652,0,1661538,1,393149E-05,2,16,-0,9788967,2,16,0,07653925,2,16,-0,2175326
0,1666731,8,224613E-06,2,16675,-0,7895628,2,16675,0,1933623,2,16675,-0,4390936,0,1666731,1,409934E-05,2,16675,-0,9265279,2,16675,0,09265278,2,16675,-0,221561
0,1671923,5,539025E-06,2,1735,-0,7734493,2,1735,0,2457313,2,1735,-0,4310368,0,1671923,1,326009E-05,2,1735,-0,8862439,2,1735,0,07653925,2,1735,-0,221561
0,1677115,5,874724E-06,2,18025,-0,7774777,2,18025,0,3182422,2,18025,-0,4229801,0,1677115,1,09102E-05,2,18025,-0,8499885,2,18025,0,04834058,2,18025,-0,221561
0,1682308,7,553216E-06,2,187,-0,8056763,2,187,0,3665827,2,187,-0,4270085,0,1682308,9,399557E-06,2,187,-0,8379034,2,187,0,07251087,2,187,-0,2014191
0,16875,7,049668E-06,2,19375,-0,8620737,2,19375,0,4149233,2,19375,-0,4189517,0,16875,8,728161E-06,2,19375,-0,8580453,2,19375,0,09668116,2,19375,-0,1893339
0,1692692,7,217517E-06,2,2005,-0,9063858,2,2005,0,4149233,2,2005,-0,4068666,0,1692692,9,063859E-06,2,2005,-0,9386129,2,2005,0,06848249,2,2005,-0,1812772
0,1697885,6,881819E-06,2,20725,-0,9184711,2,20725,0,3706111,2,20725,-0,4028382,0,1697885,1,040665E-05,2,20725,-1,003067,2,20725,0,03625543,2,20725,-0,1933623
0,1703077,8,224613E-06,2,214,-0,8781872,2,214,0,2940719,2,214,-0,4350652,0,1703077,9,567407E-06,2,214,-1,035294,2,214,0,06042573,2,214,-0,2094758
0,1708269,1,15816E-05,2,22075,-0,8298466,2,22075,0,2336462,2,22075,-0,4592355,0,1708269,6,210422E-06,2,22075,-1,039322,2,22075,0,0886244,2,22075,-0,221561
0,1713462,1,342794E-05,2,2275,-0,7734493,2,2275,0,1933623,2,2275,-0,4672923,0,1713462,4,36408E-06,2,2275,-1,031266,2,2275,0,0443122,2,2275,-0,2094758
0,1718654,1,510643E-05,2,23425,-0,7412222,2,23425,0,1732204,2,23425,-0,4310368,0,1718654,2,18204E-06,2,23425,-1,011124,2,23425,-0,02417029,2,23425,-0,1853056
0,1723846,1,577783E-05,2,241,-0,749279,2,241,0,1853056,2,241,-0,390753,0,1723846,2,517739E-06,2,241,-0,9627832,2,241,-0,0886244,2,241,-0,169192
0,1729039,1,258869E-05,2,24775,-0,7815061,2,24775,0,2497597,2,24775,-0,4149233,0,1729039,5,539025E-06,2,24775,-0,9305562,2,24775,-0,1450217,2,24775,-0,1530785
0,1734231,1,09102E-05,2,2545,-0,8177615,2,2545,0,2981002,2,2545,-0,4350652,0,1734231,3,524834E-06,2,2545,-0,9224994,2,2545,-0,1732204,2,2545,-0,1611353
0,1739423,1,359579E-05,2,26125,-0,8459601,2,26125,0,2981002,2,26125,-0,4189517,0,1739423,5,035478E-07,2,26125,-0,9305562,2,26125,-0,1490501,2,26125,-0,1772488
0,1744615,1,460288E-05,2,268,-0,8620737,2,268,0,2618448,2,268,-0,4028382,0,1744615,1,846342E-06,2,268,-0,9788967,2,268,-0,1087663,2,268,-0,2054475
0,1749808,1,292439E-05,2,27475,-0,8499885,2,27475,0,2094758,2,27475,-0,3786679,0,1749808,4,531929E-06,2,27475,-1,015152,2,27475,-0,05639734,2,27475,-0,2094758
0,1755,1,02388E-05,2,2815,-0,8258182,2,2815,0,1651637,2,2815,-0,4229801,0,1755,5,203327E-06,2,2815,-1,039322,2,2815,-0,004028382,2,2815,-0,2376745
0,1760192,7,888914E-06,2,28825,-0,8097047,2,28825,0,136965,2,28825,-0,4552071,0,1760192,4,36408E-06,2,28825,-1,023209,2,28825,0,07653925,2,28825,-0,2417029
0,1765385,6,210422E-06,2,295,-0,8177615,2,295,0,136965,2,295,-0,4350652,0,1765385,2,517739E-06,2,295,-1,003067,2,295,0,1530785,2,295,-0,2578164
0,1770577,3,860533E-06,2,30175,-0,8419318,2,30175,0,1853056,2,30175,-0,4028382,0,1770577,2,517739E-06,2,30175,-0,9668117,2,30175,0,2296178,2,30175,-0,2537881
0,1775769,1,174945E-06,2,3085,-0,8580453,2,3085,0,2578164,2,3085,-0,4310368,0,1775769,4,531929E-06,2,3085,-0,9345846,2,3085,0,2779583,2,3085,-0,2376745
0,1780962,5,035478E-07,2,31525,-0,8540169,2,31525,0,3182422,2,31525,-0,4592355,0,1780962,3,860533E-06,2,31525,-0,9104142,2,31525,0,2537881,2,31525,-0,221561
0,1786154,3,189135E-06,2,322,-0,8258182,2,322,0,3665827,2,322,-0,4310368,0,1786154,1,846342E-06,2,322,-0,8862439,2,322,0,1893339,2,322,-0,2094758
0,1791346,6,54612E-06,2,32875,-0,7976196,2,32875,0,3947814,2,32875,-0,4028382,0,1791346,0,2,32875,-0,8741588,2,32875,0,1168231,2,32875,-0,2014191
0,1796539,7,553216E-06,2,3355,-0,7694209,2,3355,0,4068666,2,3355,-0,4229801,0,1796539,-1,174945E-06,2,3355,-0,8781872,2,3355,0,02014191,2,3355,-0,2014191
0,1801731,5,203327E-06,2,34225,-0,7653925,2,34225,0,3746395,2,34225,-0,4189517,0,1801731,-1,342794E-06,2,34225,-0,9023575,2,34225,-0,05236896,2,34225,-0,1933623
0,1806923,3,189135E-06,2,349,-0,7855344,2,349,0,3343557,2,349,-0,4149233,0,1806923,-1,510643E-06,2,349,-0,9305562,2,349,-0,08459602,2,349,-0,1732204
0,1812115,4,867628E-06,2,35575,-0,8298466,2,35575,0,2981002,2,35575,-0,4270085,0,1812115,-6,713969E-07,2,35575,-0,9668117,2,35575,-0,09668116,2,35575,-0,1530785
0,1817308,7,553216E-06,2,3625,-0,8741588,2,3625,0,2497597,2,3625,-0,4270085,0,1817308,2,517739E-06,2,3625,-1,003067,2,3625,-0,1127947,2,3625,-0,1409934
0,18225,7,888914E-06,2,36925,-0,9063858,2,36925,0,1973907,2,36925,-0,4270085,0,18225,6,54612E-06,2,36925,-1,031266,2,36925,-0,1289082,2,36925,-0,1289082
0,1827692,7,049668E-06,2,376,-0,9023575,2,376,0,1651637,2,376,-0,4390936,0,1827692,1,007095E-05,2,376,-1,035294,2,376,-0,1127947,2,376,-0,1450217
0,1832885,7,385367E-06,2,38275,-0,8701304,2,38275,0,1571069,2,38275,-0,4270085,0,1832885,1,040665E-05,2,38275,-1,031266,2,38275,-0,0886244,2,38275,-0,1812772
0,1838077,1,12459E-05,2,3895,-0,8258182,2,3895,0,1490501,2,3895,-0,4028382,0,1838077,9,567407E-06,2,3895,-1,031266,2,3895,-0,06445411,2,3895,-0,2175326
0,1843269,1,460288E-05,2,39625,-0,7734493,2,39625,0,1611353,2,39625,-0,3947814,0,1843269,8,224613E-06,2,39625,-1,007095,2,39625,-0,02417029,2,39625,-0,221561
0,1848462,1,544213E-05,2,403,-0,7452506,2,403,0,1973907,2,403,-0,4068666,0,1848462,6,881819E-06,2,403,-0,97084,2,403,0,008056764,2,403,-0,2094758
0,1853654,1,510643E-05,2,40975,-0,7412222,2,40975,0,2457313,2,40975,-0,3988098,0,1853654,7,888914E-06,2,40975,-0,9426414,2,40975,0,03625543,2,40975,-0,1893339
0,1858846,1,426719E-05,2,4165,-0,7774777,2,4165,0,2860151,2,4165,-0,3988098,0,1858846,9,231708E-06,2,4165,-0,9104142,2,4165,0,06042573,2,4165,-0,2054475
0,1864039,1,174945E-05,2,42325,-0,8298466,2,42325,0,3262989,2,42325,-0,4028382,0,1864039,9,567407E-06,2,42325,-0,9023575,2,42325,0,1047379,2,42325,-0,2014191
0,1869231,9,735257E-06,2,43,-0,8862439,2,43,0,3424124,2,43,-0,4350652,0,1869231,1,15816E-05,2,43,-0,9144427,2,43,0,1127947,2,43,-0,2014191
0,1874423,1,19173E-05,2,43675,-0,9104142,2,43675,0,3383841,2,43675,-0,4511787,0,1874423,1,225299E-05,2,43675,-0,9466697,2,43675,0,1087663,2,43675,-0,1933623
0,1879615,1,460288E-05,2,4435,-0,9023575,2,4435,0,3303273,2,4435,-0,4552071,0,1879615,1,15816E-05,2,4435,-0,9668117,2,4435,0,1168231,2,4435,-0,2135042
0,1884808,1,594568E-05,2,45025,-0,866102,2,45025,0,3142138,2,45025,-0,4229801,0,1884808,1,040665E-05,2,45025,-0,9869535,2,45025,0,136965,2,45025,-0,2255894
0,189,1,460288E-05,2,457,-0,8137331,2,457,0,2900435,2,457,-0,390753,0,189,1,05745E-05,2,457,-1,007095,2,457,0,1289082,2,457,-0,2255894
0,1895192,9,567407E-06,2,46375,-0,7815061,2,46375,0,2779583,2,46375,-0,390753,0,1895192,1,19173E-05,2,46375,-1,011124,2,46375,0,09265278,2,46375,-0,2094758
0,1900385,5,874724E-06,2,4705,-0,7613642,2,4705,0,27393,2,4705,-0,390753,0,1900385,1,12459E-05,2,4705,-0,9990387,2,4705,0,04028382,2,4705,-0,1933623
0,1905577,6,378271E-06,2,47725,-0,7694209,2,47725,0,2699016,2,47725,-0,390753,0,1905577,1,09102E-05,2,47725,-0,9788967,2,47725,0,01208515,2,47725,-0,1611353
0,1910769,7,721065E-06,2,484,-0,7976196,2,484,0,2578164,2,484,-0,3867247,0,1910769,1,225299E-05,2,484,-0,9506981,2,484,-0,01208515,2,484,-0,1490501
0,1915962,8,224613E-06,2,49075,-0,8217899,2,49075,0,2497597,2,49075,-0,3826963,0,1915962,1,05745E-05,2,49075,-0,9305562,2,49075,-0,04028382,2,49075,-0,1490501
0,1921154,8,224613E-06,2,4975,-0,833875,2,4975,0,2336462,2,4975,-0,4189517,0,1921154,5,706875E-06,2,4975,-0,9265279,2,4975,-0,07251087,2,4975,-0,1651637
0,1926346,8,224613E-06,2,50425,-0,8298466,2,50425,0,2175326,2,50425,-0,4390936,0,1926346,1,510643E-06,2,50425,-0,9426414,2,50425,-0,09265278,2,50425,-0,1812772
0,1931538,8,224613E-06,2,511,-0,8177615,2,511,0,2014191,2,511,-0,4310368,0,1931538,5,035478E-07,2,511,-0,9547265,2,511,-0,0886244,2,511,-0,1973907
0,1936731,4,028382E-06,2,51775,-0,801648,2,51775,0,2175326,2,51775,-0,4229801,0,1936731,4,196231E-06,2,51775,-0,97084,2,51775,-0,05639734,2,51775,-0,2014191
0,1941923,-1,007096E-06,2,5245,-0,7935912,2,5245,0,2618448,2,5245,-0,4511787,0,1941923,8,89601E-06,2,5245,-0,9788967,2,5245,-0,04028382,2,5245,-0,2014191
0,1947115,-1,678492E-07,2,53125,-0,8177615,2,53125,0,306157,2,53125,-0,4672923,0,1947115,1,09102E-05,2,53125,-0,9829252,2,53125,-0,04834058,2,53125,-0,1812772
0,1952308,6,54612E-06,2,538,-0,8620737,2,538,0,3303273,2,538,-0,4511787,0,1952308,9,567407E-06,2,538,-0,9909819,2,538,-0,04834058,2,538,-0,1772488
0,19575,1,393149E-05,2,54475,-0,8943007,2,54475,0,3383841,2,54475,-0,3988098,0,19575,7,553216E-06,2,54475,-0,9909819,2,54475,-0,01611353,2,54475,-0,169192
0,1962692,1,846342E-05,2,5515,-0,9104142,2,5515,0,3383841,2,5515,-0,3826963,0,1962692,6,378271E-06,2,5515,-1,003067,2,5515,0,008056764,2,5515,-0,1732204
0,1967885,1,980621E-05,2,55825,-0,8902723,2,55825,0,3262989,2,55825,-0,3947814,0,1967885,5,874724E-06,2,55825,-1,007095,2,55825,0,05639734,2,55825,-0,1772488
0,1973077,2,131685E-05,2,565,-0,8540169,2,565,0,2658732,2,565,-0,4108949,0,1973077,7,553216E-06,2,565,-1,007095,2,565,0,1007095,2,565,-0,2054475
0,1978269,2,383459E-05,2,57175,-0,8217899,2,57175,0,1973907,2,57175,-0,3786679,0,1978269,7,217517E-06,2,57175,-1,011124,2,57175,0,1208515,2,57175,-0,2376745
0,1983462,2,299535E-05,2,5785,-0,7855344,2,5785,0,136965,2,5785,-0,3746395,0,1983462,7,217517E-06,2,5785,-1,015152,2,5785,0,1289082,2,5785,-0,2618448
0,1988654,2,165255E-05,2,58525,-0,7613642,2,58525,0,1087663,2,58525,-0,4149233,0,1988654,8,224613E-06,2,58525,-1,003067,2,58525,0,1409934,2,58525,-0,2618448
0,1993846,2,098116E-05,2,592,-0,749279,2,592,0,1168231,2,592,-0,4270085,0,1993846,9,063859E-06,2,592,-0,97084,2,592,0,1248798,2,592,-0,2618448
0,1999038,2,064546E-05,2,59875,-0,7573358,2,59875,0,1732204,2,59875,-0,4270085,0,1999038,1,258869E-05,2,59875,-0,9426414,2,59875,0,1087663,2,59875,-0,2376745
0,2004231,2,098116E-05,2,6055,-0,7895628,2,6055,0,2578164,2,6055,-0,4350652,0,2004231,1,661708E-05,2,6055,-0,9063858,2,6055,0,09668116,2,6055,-0,2175326
0,2009423,2,333105E-05,2,61225,-0,833875,2,61225,0,3464408,2,61225,-0,4390936,0,2009423,1,594568E-05,2,61225,-0,8943007,2,61225,0,07251087,2,61225,-0,1973907
0,2014615,2,333105E-05,2,619,-0,8741588,2,619,0,3988098,2,619,-0,4310368,0,2014615,1,09102E-05,2,619,-0,9144427,2,619,0,01611353,2,619,-0,1732204
0,2019808,2,131685E-05,2,62575,-0,9023575,2,62575,0,4189517,2,62575,-0,4270085,0,2019808,8,89601E-06,2,62575,-0,9547265,2,62575,-0,01611353,2,62575,-0,1490501
0,2025,2,131685E-05,2,6325,-0,8862439,2,6325,0,3988098,2,6325,-0,443122,0,2025,1,040665E-05,2,6325,-0,97084,2,6325,-0,03222705,2,6325,-0,1450217
0,2030192,2,030976E-05,2,63925,-0,8459601,2,63925,0,3625543,2,63925,-0,4390936,0,2030192,8,560311E-06,2,63925,-0,9869535,2,63925,-0,05236896,2,63925,-0,1450217
0,2035385,1,997406E-05,2,646,-0,7935912,2,646,0,3182422,2,646,-0,4229801,0,2035385,4,531929E-06,2,646,-0,9909819,2,646,-0,09265278,2,646,-0,1530785
0,2040577,1,863126E-05,2,65275,-0,7573358,2,65275,0,2779583,2,65275,-0,4028382,0,2040577,4,867628E-06,2,65275,-0,9950103,2,65275,-0,1087663,2,65275,-0,1490501
0,2045769,1,409934E-05,2,6595,-0,7452506,2,6595,0,2497597,2,6595,-0,3988098,0,2045769,6,54612E-06,2,6595,-0,9909819,2,6595,-0,1208515,2,6595,-0,1530785
0,2050962,1,15816E-05,2,66625,-0,7734493,2,66625,0,2094758,2,66625,-0,3826963,0,2050962,7,049668E-06,2,66625,-0,9829252,2,66625,-0,1087663,2,66625,-0,1651637
0,2056154,8,560311E-06,2,673,-0,8137331,2,673,0,1812772,2,673,-0,3746395,0,2056154,7,217517E-06,2,673,-0,97084,2,673,-0,09668116,2,673,-0,169192
0,2061346,3,860533E-06,2,67975,-0,8580453,2,67975,0,1812772,2,67975,-0,4068666,0,2061346,7,553216E-06,2,67975,-0,97084,2,67975,-0,05639734,2,67975,-0,1812772
0,2066538,2,517739E-06,2,6865,-0,8701304,2,6865,0,1772488,2,6865,-0,4270085,0,2066538,7,217517E-06,2,6865,-0,9668117,2,6865,0,01611353,2,6865,-0,2054475
0,2071731,2,517739E-06,2,69325,-0,8540169,2,69325,0,1732204,2,69325,-0,4229801,0,2071731,7,385367E-06,2,69325,-0,97084,2,69325,0,0886244,2,69325,-0,221561
0,2076923,1,174945E-06,2,7,-0,8258182,2,7,0,1933623,2,7,-0,4310368,0,2076923,7,888914E-06,2,7,-0,9668117,2,7,0,1208515,2,7,-0,2497597
0,2082115,3,860533E-06,2,70675,-0,801648,2,70675,0,2417029,2,70675,-0,4471503,0,2082115,8,392462E-06,2,70675,-0,9587549,2,70675,0,1409934,2,70675,-0,2497597
0,2087308,5,874724E-06,2,7135,-0,7855344,2,7135,0,2860151,2,7135,-0,4552071,0,2087308,8,89601E-06,2,7135,-0,9547265,2,7135,0,1168231,2,7135,-0,2417029
0,20925,4,196231E-06,2,72025,-0,7976196,2,72025,0,3222705,2,72025,-0,4390936,0,20925,9,231708E-06,2,72025,-0,9466697,2,72025,0,0886244,2,72025,-0,2175326
0,2097692,2,517739E-06,2,727,-0,833875,2,727,0,3625543,2,727,-0,4350652,0,2097692,9,567407E-06,2,727,-0,9345846,2,727,0,08056764,2,727,-0,1933623
0,2102885,1,846342E-06,2,73375,-0,8862439,2,73375,0,3988098,2,73375,-0,4108949,0,2102885,9,903106E-06,2,73375,-0,9426414,2,73375,0,09668116,2,73375,-0,1812772
0,2108077,3,189135E-06,2,7405,-0,9224994,2,7405,0,3867247,2,7405,-0,3424124,0,2108077,1,02388E-05,2,7405,-0,9788967,2,7405,0,08056764,2,7405,-0,1732204
0,2113269,5,706875E-06,2,74725,-0,9224994,2,74725,0,3665827,2,74725,-0,3544976,0,2113269,8,392462E-06,2,74725,-1,023209,2,74725,0,07251087,2,74725,-0,1611353
0,2118462,6,881819E-06,2,754,-0,8701304,2,754,0,3182422,2,754,-0,4350652,0,2118462,5,035477E-06,2,754,-1,039322,2,754,0,04834058,2,754,-0,1853056
0,2123654,5,539025E-06,2,76075,-0,7895628,2,76075,0,2336462,2,76075,-0,4471503,0,2123654,3,524834E-06,2,76075,-1,027237,2,76075,0,01611353,2,76075,-0,1893339
0,2128846,2,349889E-06,2,7675,-0,7291371,2,7675,0,1571069,2,7675,-0,4068666,0,2128846,5,203327E-06,2,7675,-0,9909819,2,7675,-0,03222705,2,7675,-0,2014191
0,2134039,-3,189135E-06,2,77425,-0,6807965,2,77425,0,1208515,2,77425,-0,3988098,0,2134039,7,888914E-06,2,77425,-0,9587549,2,77425,-0,06445411,2,77425,-0,1973907
0,2139231,-6,54612E-06,2,781,-0,6727397,2,781,0,1289082,2,781,-0,4028382,0,2139231,8,560311E-06,2,781,-0,9144427,2,781,-0,09668116,2,781,-0,1732204
0,2144423,-5,874724E-06,2,78775,-0,7170519,2,78775,0,1853056,2,78775,-0,4108949,0,2144423,5,203327E-06,2,78775,-0,8701304,2,78775,-0,1047379,2,78775,-0,1732204
0,2149615,-2,18204E-06,2,7945,-0,8097047,2,7945,0,2497597,2,7945,-0,4149233,0,2149615,1,510643E-06,2,7945,-0,8580453,2,7945,-0,05639734,2,7945,-0,1611353
0,2154808,1,174945E-06,2,80125,-0,8983291,2,80125,0,2940719,2,80125,-0,4189517,0,2154808,1,510643E-06,2,80125,-0,8741588,2,80125,-0,01208515,2,80125,-0,1490501
0,216,4,867628E-06,2,808,-0,9547265,2,808,0,3142138,2,808,-0,4108949,0,216,5,874724E-06,2,808,-0,9506981,2,808,0,2,808,-0,1450217
0,2165192,6,210422E-06,2,81475,-0,9506981,2,81475,0,3504692,2,81475,-0,4189517,0,2165192,6,881819E-06,2,81475,-1,007095,2,81475,0,008056764,2,81475,-0,1571069
0,2170385,7,888914E-06,2,8215,-0,8943007,2,8215,0,3665827,2,8215,-0,4310368,0,2170385,5,706875E-06,2,8215,-1,031266,2,8215,0,01611353,2,8215,-0,1732204
0,2175577,1,174945E-05,2,82825,-0,8217899,2,82825,0,3464408,2,82825,-0,4068666,0,2175577,6,378271E-06,2,82825,-1,035294,2,82825,0,02014191,2,82825,-0,1973907
0,2180769,1,695277E-05,2,835,-0,7694209,2,835,0,3101854,2,835,-0,3826963,0,2180769,6,54612E-06,2,835,-1,019181,2,835,0,02819867,2,835,-0,2094758
0,2185962,2,131685E-05,2,84175,-0,749279,2,84175,0,2699016,2,84175,-0,3706111,0,2185962,6,210422E-06,2,84175,-0,9869535,2,84175,0,08056764,2,84175,-0,1973907
0,2191154,2,299535E-05,2,8485,-0,7573358,2,8485,0,2376745,2,8485,-0,390753,0,2191154,5,203327E-06,2,8485,-0,9426414,2,8485,0,1208515,2,8485,-0,1933623
0,2196346,2,500954E-05,2,85525,-0,7815061,2,85525,0,221561,2,85525,-0,4108949,0,2196346,3,524834E-06,2,85525,-0,9063858,2,85525,0,1127947,2,85525,-0,1893339
0,2201539,2,601663E-05,2,862,-0,8137331,2,862,0,2255894,2,862,-0,4310368,0,2201539,4,699778E-06,2,862,-0,8943007,2,862,0,05236896,2,862,-0,1812772
0,2206731,2,668803E-05,2,86875,-0,8379034,2,86875,0,2618448,2,86875,-0,4390936,0,2206731,7,553216E-06,2,86875,-0,8943007,2,86875,0,02417029,2,86875,-0,1933623
0,2211923,2,970932E-05,2,8755,-0,8419318,2,8755,0,2981002,2,8755,-0,4390936,0,2211923,8,392462E-06,2,8755,-0,9144427,2,8755,-0,008056764,2,8755,-0,1973907
0,2217115,3,205921E-05,2,88225,-0,8379034,2,88225,0,3222705,2,88225,-0,4471503,0,2217115,6,54612E-06,2,88225,-0,9668117,2,88225,-0,06848249,2,88225,-0,2054475
0,2222308,3,138781E-05,2,889,-0,8540169,2,889,0,3142138,2,889,-0,4511787,0,2222308,3,692683E-06,2,889,-1,007095,2,889,-0,08459602,2,889,-0,1973907
0,22275,2,920577E-05,2,89575,-0,8781872,2,89575,0,3142138,2,89575,-0,4149233,0,22275,1,174945E-06,2,89575,-1,031266,2,89575,-0,06042573,2,89575,-0,1732204
0,2232692,2,903792E-05,2,9025,-0,8862439,2,9025,0,306157,2,9025,-0,3867247,0,2232692,8,392462E-07,2,9025,-1,055436,2,9025,-0,04028382,2,9025,-0,169192
0,2237885,2,735943E-05,2,90925,-0,866102,2,90925,0,2658732,2,90925,-0,3706111,0,2237885,5,035477E-06,2,90925,-1,043351,2,90925,0,004028382,2,90925,-0,1571069
0,2243077,2,400244E-05,2,916,-0,8379034,2,916,0,2094758,2,916,-0,3706111,0,2243077,7,217517E-06,2,916,-1,003067,2,916,0,05236896,2,916,-0,1812772
0,2248269,2,131685E-05,2,92275,-0,8097047,2,92275,0,1772488,2,92275,-0,3867247,0,2248269,5,539025E-06,2,92275,-0,9506981,2,92275,0,1127947,2,92275,-0,1973907
0,2253462,1,795987E-05,2,9295,-0,801648,2,9295,0,1772488,2,9295,-0,4028382,0,2253462,6,210422E-06,2,9295,-0,9305562,2,9295,0,1490501,2,9295,-0,221561
0,2258654,1,359579E-05,2,93625,-0,7935912,2,93625,0,2054475,2,93625,-0,4189517,0,2258654,1,02388E-05,2,93625,-0,9386129,2,93625,0,1530785,2,93625,-0,2417029
0,2263846,9,231708E-06,2,943,-0,7734493,2,943,0,2457313,2,943,-0,4471503,0,2263846,1,19173E-05,2,943,-0,9345846,2,943,0,1289082,2,943,-0,2537881
0,2269039,6,54612E-06,2,94975,-0,749279,2,94975,0,2900435,2,94975,-0,4632639,0,2269039,1,359579E-05,2,94975,-0,9305562,2,94975,0,06042573,2,94975,-0,221561
0,2274231,7,553216E-06,2,9565,-0,7291371,2,9565,0,3303273,2,9565,-0,4672923,0,2274231,1,510643E-05,2,9565,-0,9104142,2,9565,-0,03222705,2,9565,-0,1933623
0,2279423,8,89601E-06,2,96325,-0,7291371,2,96325,0,3867247,2,96325,-0,4471503,0,2279423,1,426719E-05,2,96325,-0,8983291,2,96325,-0,1127947,2,96325,-0,1490501
0,2284615,7,888914E-06,2,97,-0,7694209,2,97,0,4189517,2,97,-0,4149233,0,2284615,1,359579E-05,2,97,-0,9023575,2,97,-0,1571069,2,97,-0,1409934
0,2289808,5,203327E-06,2,97675,-0,8419318,2,97675,0,4068666,2,97675,-0,3988098,0,2289808,1,242084E-05,2,97675,-0,9386129,2,97675,-0,1490501,2,97675,-0,1248798
0,2295,4,699778E-06,2,9835,-0,9224994,2,9835,0,3383841,2,9835,-0,390753,0,2295,1,02388E-05,2,9835,-0,9950103,2,9835,-0,1289082,2,9835,-0,136965
0,2300192,7,217517E-06,2,99025,-0,97084,2,99025,0,2296178,2,99025,-0,3867247,0,2300192,7,888914E-06,2,99025,-1,063493,2,99025,-0,1007095,2,99025,-0,1490501
0,2305385,9,567407E-06,2,997,-0,9587549,2,997,0,1248798,2,997,-0,3867247,0,2305385,8,560311E-06,2,997,-1,091691,2,997,-0,03222705,2,997,-0,169192
0,2310577,7,888914E-06,3,00375,-0,8862439,3,00375,0,05639734,3,00375,-0,3826963,0,2310577,1,15816E-05,3,00375,-1,059464,3,00375,0,06445411,3,00375,-0,1772488
0,2315769,5,874724E-06,3,0105,-0,7895628,3,0105,0,0443122,3,0105,-0,358526,0,2315769,1,376364E-05,3,0105,-1,003067,3,0105,0,1248798,3,0105,-0,2014191
0,2320962,8,89601E-06,3,01725,-0,7170519,3,01725,0,1087663,3,01725,-0,3504692,0,2320962,1,05745E-05,3,01725,-0,9265279,3,01725,0,1611353,3,01725,-0,1973907
0,2326154,1,107805E-05,3,024,-0,6928816,3,024,0,221561,3,024,-0,390753,0,2326154,7,049668E-06,3,024,-0,866102,3,024,0,1651637,3,024,-0,1933623
0,2331346,1,05745E-05,3,03075,-0,7049668,3,03075,0,3343557,3,03075,-0,4229801,0,2331346,6,210422E-06,3,03075,-0,8258182,3,03075,0,1490501,3,03075,-0,1732204
0,2336538,9,903106E-06,3,0375,-0,7573358,3,0375,0,4189517,3,0375,-0,3867247,0,2336538,9,567407E-06,3,0375,-0,833875,3,0375,0,1007095,3,0375,-0,1732204
0,2341731,8,224613E-06,3,04425,-0,8137331,3,04425,0,4753491,3,04425,-0,3826963,0,2341731,1,359579E-05,3,04425,-0,866102,3,04425,0,05639734,3,04425,-0,1732204
0,2346923,6,881819E-06,3,051,-0,8540169,3,051,0,4874342,3,051,-0,4552071,0,2346923,1,326009E-05,3,051,-0,9265279,3,051,0,01208515,3,051,-0,2054475
0,2352115,6,210422E-06,3,05775,-0,8701304,3,05775,0,4310368,3,05775,-0,4834058,0,2352115,1,02388E-05,3,05775,-0,9950103,3,05775,-0,004028382,3,05775,-0,2135042
0,2357308,6,210422E-06,3,0645,-0,8701304,3,0645,0,3383841,3,0645,-0,4552071,0,2357308,7,553216E-06,3,0645,-1,055436,3,0645,0,3,0645,-0,2255894
0,23625,6,210422E-06,3,07125,-0,8701304,3,07125,0,2497597,3,07125,-0,4390936,0,23625,6,54612E-06,3,07125,-1,087663,3,07125,0,3,07125,-0,2336462
0,2367692,5,203327E-06,3,078,-0,8701304,3,078,0,1772488,3,078,-0,443122,0,2367692,6,54612E-06,3,078,-1,099748,3,078,-0,01208515,3,078,-0,2135042
0,2372885,4,867628E-06,3,08475,-0,8701304,3,08475,0,1490501,3,08475,-0,4310368,0,2372885,6,881819E-06,3,08475,-1,07155,3,08475,-0,01611353,3,08475,-0,1772488
0,2378077,6,71397E-06,3,0915,-0,8781872,3,0915,0,1571069,3,0915,-0,4108949,0,2378077,7,888914E-06,3,0915,-1,019181,3,0915,-0,01208515,3,0915,-0,1490501
0,2383269,8,392462E-06,3,09825,-0,866102,3,09825,0,2175326,3,09825,-0,3544976,0,2383269,8,560311E-06,3,09825,-0,9627832,3,09825,-0,008056764,3,09825,-0,1329366
0,2388462,6,378271E-06,3,105,-0,8217899,3,105,0,2819867,3,105,-0,3746395,0,2388462,7,721065E-06,3,105,-0,9104142,3,105,-0,05236896,3,105,-0,1168231
0,2393654,5,203327E-06,3,11175,-0,7653925,3,11175,0,3303273,3,11175,-0,4068666,0,2393654,8,392462E-06,3,11175,-0,8822156,3,11175,-0,09265278,3,11175,-0,1208515
0,2398846,4,867628E-06,3,1185,-0,7291371,3,1185,0,3343557,3,1185,-0,4390936,0,2398846,1,09102E-05,3,1185,-0,8701304,3,1185,-0,1047379,3,1185,-0,1571069
0,2404038,2,685588E-06,3,12525,-0,7049668,3,12525,0,306157,3,12525,-0,4471503,0,2404038,1,174945E-05,3,12525,-0,8902723,3,12525,-0,1047379,3,12525,-0,169192
0,2409231,4,867628E-06,3,132,-0,7251087,3,132,0,27393,3,132,-0,4229801,0,2409231,1,107805E-05,3,132,-0,9386129,3,132,-0,1087663,3,132,-0,2094758
0,2414423,8,89601E-06,3,13875,-0,7694209,3,13875,0,2457313,3,13875,-0,4068666,0,2414423,7,888914E-06,3,13875,-0,9748684,3,13875,-0,06445411,3,13875,-0,221561
0,2419615,1,05745E-05,3,1455,-0,8298466,3,1455,0,2296178,3,1455,-0,4350652,0,2419615,5,874724E-06,3,1455,-1,003067,3,1455,-0,01208515,3,1455,-0,2296178
0,2424808,8,728161E-06,3,15225,-0,8781872,3,15225,0,221561,3,15225,-0,4350652,0,2424808,3,692683E-06,3,15225,-1,011124,3,15225,0,02417029,3,15225,-0,1933623
0,243,8,392462E-06,3,159,-0,9184711,3,159,0,2336462,3,159,-0,4189517,0,243,3,524834E-06,3,159,-0,9990387,3,159,0,07653925,3,159,-0,2014191
0,2435192,9,231708E-06,3,16575,-0,9386129,3,16575,0,2779583,3,16575,-0,4068666,0,2435192,7,553216E-06,3,16575,-0,9788967,3,16575,0,1611353,3,16575,-0,1893339
0,2440385,9,567407E-06,3,1725,-0,9265279,3,1725,0,3142138,3,1725,-0,3947814,0,2440385,1,359579E-05,3,1725,-0,97084,3,1725,0,2054475,3,1725,-0,2135042
0,2445577,7,888914E-06,3,17925,-0,8741588,3,17925,0,3343557,3,17925,-0,3867247,0,2445577,1,409934E-05,3,17925,-0,97084,3,17925,0,2094758,3,17925,-0,221561
0,2450769,7,217517E-06,3,186,-0,7976196,3,186,0,3383841,3,186,-0,4068666,0,2450769,1,02388E-05,3,186,-0,9627832,3,186,0,1853056,3,186,-0,221561
0,2455962,9,567407E-06,3,19275,-0,7251087,3,19275,0,3182422,3,19275,-0,4310368,0,2455962,6,54612E-06,3,19275,-0,9466697,3,19275,0,1530785,3,19275,-0,2135042
0,2461154,1,309224E-05,3,1995,-0,6928816,3,1995,0,2860151,3,1995,-0,4390936,0,2461154,4,196231E-06,3,1995,-0,9224994,3,1995,0,06848249,3,1995,-0,2094758
0,2466346,1,460288E-05,3,20625,-0,69691,3,20625,0,27393,3,20625,-0,4270085,0,2466346,4,36408E-06,3,20625,-0,9063858,3,20625,-0,03625543,3,20625,-0,1732204
0,2471538,1,594568E-05,3,213,-0,7452506,3,213,0,2819867,3,213,-0,4390936,0,2471538,7,049668E-06,3,213,-0,9023575,3,213,-0,09668116,3,213,-0,1853056
0,2476731,1,560998E-05,3,21975,-0,8217899,3,21975,0,2860151,3,21975,-0,4471503,0,2476731,1,15816E-05,3,21975,-0,9144427,3,21975,-0,1007095,3,21975,-0,1732204
0,2481923,1,493858E-05,3,2265,-0,8902723,3,2265,0,2900435,3,2265,-0,4511787,0,2481923,1,493858E-05,3,2265,-0,9587549,3,2265,-0,1087663,3,2265,-0,1772488
0,2487115,1,644923E-05,3,23325,-0,9224994,3,23325,0,27393,3,23325,-0,4350652,0,2487115,1,477073E-05,3,23325,-0,9990387,3,23325,-0,1007095,3,23325,-0,1651637
0,2492308,1,997406E-05,3,24,-0,9063858,3,24,0,2537881,3,24,-0,4310368,0,2492308,1,05745E-05,3,24,-1,031266,3,24,-0,1087663,3,24,-0,1732204
0,24975,2,131685E-05,3,24675,-0,8419318,3,24675,0,2457313,3,24675,-0,4390936,0,24975,7,888914E-06,3,24675,-1,051408,3,24675,-0,1168231,3,24675,-0,1893339
0,2502692,1,930266E-05,3,2535,-0,7815061,3,2535,0,2255894,3,2535,-0,4149233,0,2502692,6,881819E-06,3,2535,-1,047379,3,2535,-0,1127947,3,2535,-0,1933623
0,2507885,1,661708E-05,3,26025,-0,7452506,3,26025,0,2135042,3,26025,-0,4028382,0,2507885,6,881819E-06,3,26025,-1,019181,3,26025,-0,1007095,3,26025,-0,2135042
0,2513077,1,477073E-05,3,267,-0,7613642,3,267,0,1933623,3,267,-0,4149233,0,2513077,6,881819E-06,3,267,-0,9869535,3,267,-0,02819867,3,267,-0,2054475
0,2518269,1,426719E-05,3,27375,-0,801648,3,27375,0,1973907,3,27375,-0,4028382,0,2518269,6,378271E-06,3,27375,-0,9668117,3,27375,0,01611353,3,27375,-0,1772488
0,2523462,1,242084E-05,3,2805,-0,8620737,3,2805,0,2175326,3,2805,-0,3867247,0,2523462,5,874724E-06,3,2805,-0,9506981,3,2805,0,07251087,3,2805,-0,1651637
0,2528654,1,174945E-05,3,28725,-0,8943007,3,28725,0,2578164,3,28725,-0,3786679,0,2528654,6,881819E-06,3,28725,-0,9305562,3,28725,0,1248798,3,28725,-0,169192
0,2533846,9,231708E-06,3,294,-0,8862439,3,294,0,2900435,3,294,-0,4229801,0,2533846,9,567407E-06,3,294,-0,9224994,3,294,0,1611353,3,294,-0,1893339
0,2539038,3,524834E-06,3,30075,-0,833875,3,30075,0,3182422,3,30075,-0,4350652,0,2539038,1,275654E-05,3,30075,-0,9224994,3,30075,0,1611353,3,30075,-0,2094758
0,2544231,-1,846342E-06,3,3075,-0,7694209,3,3075,0,3303273,3,3075,-0,4350652,0,2544231,1,05745E-05,3,3075,-0,9144427,3,3075,0,1208515,3,3075,-0,2175326
0,2549423,-1,846342E-06,3,31425,-0,7291371,3,31425,0,3343557,3,31425,-0,4350652,0,2549423,5,874724E-06,3,31425,-0,8983291,3,31425,0,07653925,3,31425,-0,2175326
0,2554615,8,392462E-07,3,321,-0,7210803,3,321,0,3424124,3,321,-0,4189517,0,2554615,5,539025E-06,3,321,-0,8822156,3,321,0,04834058,3,321,-0,2054475
0,2559808,3,021286E-06,3,32775,-0,7533074,3,32775,0,3665827,3,32775,-0,4149233,0,2559808,5,874724E-06,3,32775,-0,8902723,3,32775,0,04028382,3,32775,-0,2014191
0,2565,6,210422E-06,3,3345,-0,8097047,3,3345,0,3665827,3,3345,-0,4149233,0,2565,4,196231E-06,3,3345,-0,9144427,3,3345,0,3,3345,-0,1853056
0,2570192,1,02388E-05,3,34125,-0,8701304,3,34125,0,3464408,3,34125,-0,4229801,0,2570192,3,524834E-06,3,34125,-0,9426414,3,34125,-0,03222705,3,34125,-0,1571069
0,2575385,1,242084E-05,3,348,-0,9104142,3,348,0,3101854,3,348,-0,4270085,0,2575385,5,035477E-06,3,348,-0,9950103,3,348,-0,05639734,3,348,-0,1571069
0,2580577,1,040665E-05,3,35475,-0,9224994,3,35475,0,27393,3,35475,-0,4350652,0,2580577,8,224613E-06,3,35475,-1,039322,3,35475,-0,02819867,3,35475,-0,1732204
0,2585769,6,881819E-06,3,3615,-0,9023575,3,3615,0,221561,3,3615,-0,4350652,0,2585769,1,05745E-05,3,3615,-1,075578,3,3615,0,01208515,3,3615,-0,1973907
0,2590961,8,224613E-06,3,36825,-0,8540169,3,36825,0,1732204,3,36825,-0,4310368,0,2590961,9,063859E-06,3,36825,-1,087663,3,36825,0,02014191,3,36825,-0,2135042
0,2596154,1,107805E-05,3,375,-0,801648,3,375,0,1490501,3,375,-0,4149233,0,2596154,6,042573E-06,3,375,-1,051408,3,375,0,3,375,-0,2094758
0,2601346,1,15816E-05,3,38175,-0,7653925,3,38175,0,169192,3,38175,-0,4149233,0,2601346,4,699778E-06,3,38175,-0,9990387,3,38175,-0,02819867,3,38175,-0,1973907
0,2606539,1,326009E-05,3,3885,-0,749279,3,3885,0,221561,3,3885,-0,4068666,0,2606539,6,042573E-06,3,3885,-0,9345846,3,3885,-0,05639734,3,3885,-0,1772488
0,2611731,1,393149E-05,3,39525,-0,7613642,3,39525,0,2860151,3,39525,-0,4229801,0,2611731,8,560311E-06,3,39525,-0,8781872,3,39525,-0,05639734,3,39525,-0,1732204
0,2616923,1,426719E-05,3,402,-0,801648,3,402,0,3424124,3,402,-0,4592355,0,2616923,9,567407E-06,3,402,-0,8580453,3,402,-0,02417029,3,402,-0,169192
0,2622115,1,460288E-05,3,40875,-0,8499885,3,40875,0,3706111,3,40875,-0,4592355,0,2622115,6,54612E-06,3,40875,-0,8902723,3,40875,-0,004028382,3,40875,-0,1812772
0,2627308,1,393149E-05,3,4155,-0,8822156,3,4155,0,3665827,3,4155,-0,443122,0,2627308,4,699778E-06,3,4155,-0,9547265,3,4155,-0,004028382,3,4155,-0,2094758
0,26325,1,19173E-05,3,42225,-0,8701304,3,42225,0,3262989,3,42225,-0,4350652,0,26325,5,874724E-06,3,42225,-1,019181,3,42225,-0,008056764,3,42225,-0,2135042
0,2637692,1,326009E-05,3,429,-0,8298466,3,429,0,2618448,3,429,-0,4350652,0,2637692,7,385367E-06,3,429,-1,047379,3,429,-0,004028382,3,429,-0,2255894
0,2642885,1,728847E-05,3,43575,-0,7774777,3,43575,0,2255894,3,43575,-0,4390936,0,2642885,8,224613E-06,3,43575,-1,051408,3,43575,0,008056764,3,43575,-0,2175326
0,2648077,2,131685E-05,3,4425,-0,7452506,3,4425,0,2175326,3,4425,-0,4310368,0,2648077,1,02388E-05,3,4425,-1,027237,3,4425,-0,004028382,3,4425,-0,2094758
0,2653269,2,500954E-05,3,44925,-0,7412222,3,44925,0,2376745,3,44925,-0,4108949,0,2653269,1,107805E-05,3,44925,-0,9788967,3,44925,-0,02014191,3,44925,-0,1933623
0,2658462,2,769513E-05,3,456,-0,7694209,3,456,0,2578164,3,456,-0,4189517,0,2658462,1,208515E-05,3,456,-0,9265279,3,456,-0,01611353,3,456,-0,1732204
0,2663654,2,652018E-05,3,46275,-0,8379034,3,46275,0,2618448,3,46275,-0,4471503,0,2663654,1,225299E-05,3,46275,-0,8943007,3,46275,0,02014191,3,46275,-0,1772488
0,2668846,2,081331E-05,3,4695,-0,9063858,3,4695,0,2699016,3,4695,-0,443122,0,2668846,1,292439E-05,3,4695,-0,9023575,3,4695,0,06445411,3,4695,-0,1812772
0,2674038,1,326009E-05,3,47625,-0,9426414,3,47625,0,2819867,3,47625,-0,4108949,0,2674038,1,174945E-05,3,47625,-0,9547265,3,47625,0,06445411,3,47625,-0,2014191
0,2679231,7,217517E-06,3,483,-0,9104142,3,483,0,2819867,3,483,-0,3826963,0,2679231,8,89601E-06,3,483,-1,011124,3,483,0,02417029,3,483,-0,2135042
0,2684423,5,706875E-06,3,48975,-0,8379034,3,48975,0,2860151,3,48975,-0,4108949,0,2684423,7,888914E-06,3,48975,-1,007095,3,48975,0,02014191,3,48975,-0,1973907
0,2689615,6,881819E-06,3,4965,-0,7613642,3,4965,0,27393,3,4965,-0,4471503,0,2689615,7,888914E-06,3,4965,-0,9788967,3,4965,0,02819867,3,4965,-0,2094758
0,2694808,8,560311E-06,3,50325,-0,7371938,3,50325,0,27393,3,50325,-0,4310368,0,2694808,7,553216E-06,3,50325,-0,9466697,3,50325,0,05639734,3,50325,-0,2054475
0,27,6,54612E-06,3,51,-0,7452506,3,51,0,2819867,3,51,-0,4108949,0,27,7,553216E-06,3,51,-0,9345846,3,51,0,0443122,3,51,-0,2014191
0,2705192,0,3,51675,-0,7815061,3,51675,0,2819867,3,51675,-0,4068666,0,2705192,6,210422E-06,3,51675,-0,9184711,3,51675,0,02819867,3,51675,-0,1732204
0,2710385,-4,196231E-06,3,5235,-0,8419318,3,5235,0,2819867,3,5235,-0,4390936,0,2710385,3,021286E-06,3,5235,-0,9104142,3,5235,0,02819867,3,5235,-0,1853056
0,2715577,-3,524834E-06,3,53025,-0,8781872,3,53025,0,2900435,3,53025,-0,443122,0,2715577,3,189135E-06,3,53025,-0,9104142,3,53025,0,06848249,3,53025,-0,1772488
0,2720769,-1,174945E-06,3,537,-0,8862439,3,537,0,306157,3,537,-0,443122,0,2720769,3,692683E-06,3,537,-0,9426414,3,537,0,0443122,3,537,-0,1812772
0,2725962,3,860533E-06,3,54375,-0,8540169,3,54375,0,306157,3,54375,-0,443122,0,2725962,3,189135E-06,3,54375,-0,9788967,3,54375,-0,02014191,3,54375,-0,1853056
0,2731154,1,040665E-05,3,5505,-0,8056763,3,5505,0,3101854,3,5505,-0,4511787,0,2731154,3,860533E-06,3,5505,-0,9950103,3,5505,-0,07653925,3,5505,-0,1772488
0,2736346,1,326009E-05,3,55725,-0,7734493,3,55725,0,3142138,3,55725,-0,443122,0,2736346,5,203327E-06,3,55725,-0,9869535,3,55725,-0,1208515,3,55725,-0,169192
0,2741539,1,258869E-05,3,564,-0,7774777,3,564,0,3222705,3,564,-0,4108949,0,2741539,6,54612E-06,3,564,-0,9829252,3,564,-0,1530785,3,564,-0,1611353
0,2746731,1,19173E-05,3,57075,-0,8217899,3,57075,0,3182422,3,57075,-0,3947814,0,2746731,8,560311E-06,3,57075,-0,9829252,3,57075,-0,1409934,3,57075,-0,1530785
0,2751923,1,19173E-05,3,5775,-0,8701304,3,5775,0,2940719,3,5775,-0,4149233,0,2751923,7,553216E-06,3,5775,-0,9950103,3,5775,-0,07653925,3,5775,-0,1530785
0,2757115,1,426719E-05,3,58425,-0,8862439,3,58425,0,2537881,3,58425,-0,3988098,0,2757115,3,189135E-06,3,58425,-1,019181,3,58425,-0,02417029,3,58425,-0,169192
0,2762308,1,628138E-05,3,591,-0,8701304,3,591,0,2135042,3,591,-0,3947814,0,2762308,2,349889E-06,3,591,-1,035294,3,591,0,02014191,3,591,-0,2094758
0,27675,1,661708E-05,3,59775,-0,8097047,3,59775,0,1530785,3,59775,-0,4189517,0,27675,4,196231E-06,3,59775,-1,027237,3,59775,0,06848249,3,59775,-0,2618448
0,2772692,1,795987E-05,3,6045,-0,749279,3,6045,0,09668116,3,6045,-0,4390936,0,2772692,7,049668E-06,3,6045,-1,015152,3,6045,0,1127947,3,6045,-0,2981002
0,2777885,1,795987E-05,3,61125,-0,7089952,3,61125,0,08459602,3,61125,-0,4632639,0,2777885,8,392462E-06,3,61125,-0,9788967,3,61125,0,1289082,3,61125,-0,3021286
0,2783077,1,644923E-05,3,618,-0,7130235,3,618,0,1329366,3,618,-0,4914626,0,2783077,9,063859E-06,3,618,-0,9386129,3,618,0,1248798,3,618,-0,2658732
0,2788269,1,695277E-05,3,62475,-0,7774777,3,62475,0,2336462,3,62475,-0,4713207,0,2788269,8,392462E-06,3,62475,-0,8983291,3,62475,0,1248798,3,62475,-0,2336462
0,2793462,1,795987E-05,3,6315,-0,8741588,3,6315,0,3504692,3,6315,-0,4390936,0,2793462,5,203327E-06,3,6315,-0,8822156,3,6315,0,1087663,3,6315,-0,1933623
0,2798654,1,779202E-05,3,63825,-0,9466697,3,63825,0,4350652,3,63825,-0,4149233,0,2798654,2,014191E-06,3,63825,-0,8862439,3,63825,0,07251087,3,63825,-0,1651637
0,2803846,1,560998E-05,3,645,-0,9627832,3,645,0,4713207,3,645,-0,4028382,0,2803846,4,196231E-06,3,645,-0,9104142,3,645,0,03625543,3,645,-0,1530785
0,2809038,1,02388E-05,3,65175,-0,9184711,3,65175,0,4592355,3,65175,-0,4149233,0,2809038,7,217517E-06,3,65175,-0,9265279,3,65175,0,02417029,3,65175,-0,1409934
0,2814231,3,860533E-06,3,6585,-0,833875,3,6585,0,4068666,3,6585,-0,4270085,0,2814231,5,203327E-06,3,6585,-0,9426414,3,6585,0,008056764,3,6585,-0,1611353
0,2819423,0,3,66525,-0,749279,3,66525,0,3383841,3,66525,-0,4229801,0,2819423,3,860533E-06,3,66525,-0,9587549,3,66525,0,3,66525,-0,1732204
0,2824616,1,174945E-06,3,672,-0,6928816,3,672,0,27393,3,672,-0,4068666,0,2824616,4,699778E-06,3,672,-0,9748684,3,672,-0,01611353,3,672,-0,1853056
0,2829808,5,874724E-06,3,67875,-0,6687114,3,67875,0,221561,3,67875,-0,4028382,0,2829808,7,721065E-06,3,67875,-0,9788967,3,67875,-0,06848249,3,67875,-0,1853056
0,2835,1,05745E-05,3,6855,-0,6888533,3,6855,0,1853056,3,6855,-0,4270085,0,2835,8,89601E-06,3,6855,-0,9748684,3,6855,-0,1329366,3,6855,-0,1651637
0,2840192,1,292439E-05,3,69225,-0,7452506,3,69225,0,1812772,3,69225,-0,4592355,0,2840192,9,735257E-06,3,69225,-0,9748684,3,69225,-0,1772488,3,69225,-0,1651637
0,2845385,1,326009E-05,3,699,-0,8258182,3,699,0,1893339,3,699,-0,4713207,0,2845385,1,174945E-05,3,699,-0,9829252,3,699,-0,1772488,3,699,-0,1732204
0,2850577,1,258869E-05,3,70575,-0,8902723,3,70575,0,2094758,3,70575,-0,4270085,0,2850577,1,409934E-05,3,70575,-1,003067,3,70575,-0,1530785,3,70575,-0,1772488
0,2855769,1,359579E-05,3,7125,-0,9104142,3,7125,0,2255894,3,7125,-0,4189517,0,2855769,1,443503E-05,3,7125,-1,031266,3,7125,-0,1289082,3,7125,-0,1853056
0,2860962,1,594568E-05,3,71925,-0,8983291,3,71925,0,2135042,3,71925,-0,4229801,0,2860962,1,258869E-05,3,71925,-1,019181,3,71925,-0,08056764,3,71925,-0,1812772
0,2866154,1,795987E-05,3,726,-0,866102,3,726,0,1973907,3,726,-0,4189517,0,2866154,1,02388E-05,3,726,-0,9950103,3,726,-0,004028382,3,726,-0,2014191
0,2871346,1,795987E-05,3,73275,-0,8459601,3,73275,0,2054475,3,73275,-0,390753,0,2871346,1,12459E-05,3,73275,-0,9627832,3,73275,0,09668116,3,73275,-0,2014191
0,2876539,1,728847E-05,3,7395,-0,8459601,3,7395,0,2457313,3,7395,-0,390753,0,2876539,1,393149E-05,3,7395,-0,9305562,3,7395,0,1732204,3,7395,-0,2135042
0,2881731,1,527428E-05,3,74625,-0,8741588,3,74625,0,306157,3,74625,-0,3947814,0,2881731,1,460288E-05,3,74625,-0,9023575,3,74625,0,2699016,3,74625,-0,2014191
0,2886923,1,225299E-05,3,753,-0,8862439,3,753,0,3544976,3,753,-0,3826963,0,2886923,1,359579E-05,3,753,-0,8822156,3,753,0,3303273,3,753,-0,1973907
0,2892115,1,275654E-05,3,75975,-0,8580453,3,75975,0,4028382,3,75975,-0,3947814,0,2892115,1,19173E-05,3,75975,-0,8983291,3,75975,0,2900435,3,75975,-0,1853056
0,2897308,1,292439E-05,3,7665,-0,8056763,3,7665,0,4229801,3,7665,-0,4270085,0,2897308,1,09102E-05,3,7665,-0,9104142,3,7665,0,1973907,3,7665,-0,1893339
0,29025,1,258869E-05,3,77325,-0,7291371,3,77325,0,4068666,3,77325,-0,4350652,0,29025,1,02388E-05,3,77325,-0,9265279,3,77325,0,07653925,3,77325,-0,1853056
0,2907692,1,326009E-05,3,78,-0,6687114,3,78,0,3867247,3,78,-0,4511787,0,2907692,7,553216E-06,3,78,-0,9386129,3,78,-0,04028382,3,78,-0,1853056
0,2912885,1,577783E-05,3,78675,-0,6405127,3,78675,0,358526,3,78675,-0,4713207,0,2912885,3,692683E-06,3,78675,-0,9506981,3,78675,-0,1490501,3,78675,-0,1853056
0,2918077,1,812772E-05,3,7935,-0,6888533,3,7935,0,3142138,3,7935,-0,4672923,0,2918077,3,356985E-06,3,7935,-0,97084,3,7935,-0,1853056,3,7935,-0,2014191
0,2923269,1,863126E-05,3,80025,-0,7855344,3,80025,0,27393,3,80025,-0,4552071,0,2923269,4,867628E-06,3,80025,-0,9990387,3,80025,-0,2175326,3,80025,-0,1812772
0,2928461,1,409934E-05,3,807,-0,8983291,3,807,0,2175326,3,807,-0,4390936,0,2928461,6,881819E-06,3,807,-1,043351,3,807,-0,2376745,3,807,-0,1611353
0,2933654,7,888914E-06,3,81375,-0,9869535,3,81375,0,1611353,3,81375,-0,4189517,0,2933654,7,217517E-06,3,81375,-1,063493,3,81375,-0,2054475,3,81375,-0,1409934
0,2938846,3,021286E-06,3,8205,-1,027237,3,8205,0,1289082,3,8205,-0,4068666,0,2938846,6,378271E-06,3,8205,-1,063493,3,8205,-0,1409934,3,8205,-0,1651637
0,2944039,-3,356985E-07,3,82725,-1,011124,3,82725,0,1248798,3,82725,-0,390753,0,2944039,3,692683E-06,3,82725,-1,043351,3,82725,-0,0443122,3,82725,-0,1812772
0,2949231,-8,392462E-07,3,834,-0,9345846,3,834,0,136965,3,834,-0,4028382,0,2949231,-1,678492E-07,3,834,-1,019181,3,834,0,06042573,3,834,-0,1933623
0,2954423,1,174945E-06,3,84075,-0,8419318,3,84075,0,169192,3,84075,-0,4310368,0,2954423,0,3,84075,-0,9869535,3,84075,0,1490501,3,84075,-0,2054475
0,2959615,2,517739E-06,3,8475,-0,7613642,3,8475,0,2417029,3,8475,-0,4471503,0,2959615,2,517739E-06,3,8475,-0,9506981,3,8475,0,1853056,3,8475,-0,2054475
0,2964808,3,524834E-06,3,85425,-0,7210803,3,85425,0,3142138,3,85425,-0,4068666,0,2964808,3,860533E-06,3,85425,-0,9104142,3,85425,0,1732204,3,85425,-0,2094758
0,297,3,860533E-06,3,861,-0,7009384,3,861,0,3786679,3,861,-0,3706111,0,297,4,531929E-06,3,861,-0,8862439,3,861,0,1409934,3,861,-0,2094758
0,2975192,5,035477E-06,3,86775,-0,7049668,3,86775,0,4068666,3,86775,-0,3867247,0,2975192,7,049668E-06,3,86775,-0,8862439,3,86775,0,1208515,3,86775,-0,2135042
0,2980385,8,224613E-06,3,8745,-0,7251087,3,8745,0,3988098,3,8745,-0,4108949,0,2980385,1,02388E-05,3,8745,-0,8862439,3,8745,0,1007095,3,8745,-0,2175326
0,2985577,1,05745E-05,3,88125,-0,7613642,3,88125,0,3706111,3,88125,-0,4632639,0,2985577,1,107805E-05,3,88125,-0,8983291,3,88125,0,07653925,3,88125,-0,2094758
0,2990769,1,12459E-05,3,888,-0,7976196,3,888,0,3343557,3,888,-0,4834058,0,2990769,1,05745E-05,3,888,-0,9305562,3,888,0,03222705,3,888,-0,2054475
0,2995962,1,309224E-05,3,89475,-0,8298466,3,89475,0,2981002,3,89475,-0,4914626,0,2995962,9,399557E-06,3,89475,-0,9788967,3,89475,-0,03625543,3,89475,-0,2054475
0,3001154,1,527428E-05,3,9015,-0,8540169,3,9015,0,2779583,3,9015,-0,4793774,0,3001154,8,224613E-06,3,9015,-1,023209,3,9015,-0,1087663,3,9015,-0,1933623
0,3006346,1,460288E-05,3,90825,-0,866102,3,90825,0,2699016,3,90825,-0,4390936,0,3006346,7,049668E-06,3,90825,-1,039322,3,90825,-0,1651637,3,90825,-0,1893339
0,3011538,1,258869E-05,3,915,-0,8620737,3,915,0,2457313,3,915,-0,3988098,0,3011538,7,217517E-06,3,915,-1,055436,3,915,-0,1973907,3,915,-0,1853056
0,3016731,1,15816E-05,3,92175,-0,8580453,3,92175,0,2175326,3,92175,-0,3867247,0,3016731,9,399557E-06,3,92175,-1,047379,3,92175,-0,2014191,3,92175,-0,1611353
0,3021923,1,275654E-05,3,9285,-0,8499885,3,9285,0,1732204,3,9285,-0,390753,0,3021923,1,15816E-05,3,9285,-1,035294,3,9285,-0,169192,3,9285,-0,1611353
0,3027115,1,644923E-05,3,93525,-0,8419318,3,93525,0,1248798,3,93525,-0,3867247,0,3027115,9,231708E-06,3,93525,-1,019181,3,93525,-0,0443122,3,93525,-0,1812772
0,3032308,1,695277E-05,3,942,-0,8177615,3,942,0,09668116,3,942,-0,3867247,0,3032308,8,224613E-06,3,942,-0,9990387,3,942,0,09265278,3,942,-0,1973907
0,30375,1,661708E-05,3,94875,-0,7935912,3,94875,0,0886244,3,94875,-0,3826963,0,30375,9,903106E-06,3,94875,-0,97084,3,94875,0,169192,3,94875,-0,2175326
0,3042692,1,947051E-05,3,9555,-0,7734493,3,9555,0,1047379,3,9555,-0,4068666,0,3042692,9,903106E-06,3,9555,-0,9386129,3,9555,0,221561,3,9555,-0,2255894
0,3047885,2,047761E-05,3,96225,-0,7653925,3,96225,0,1853056,3,96225,-0,4028382,0,3047885,9,231708E-06,3,96225,-0,8943007,3,96225,0,2497597,3,96225,-0,2054475
0,3053077,1,863126E-05,3,969,-0,7855344,3,969,0,3303273,3,969,-0,4189517,0,3053077,1,040665E-05,3,969,-0,8540169,3,969,0,2135042,3,969,-0,1973907
0,3058269,1,661708E-05,3,97575,-0,8056763,3,97575,0,4753491,3,97575,-0,4471503,0,3058269,1,225299E-05,3,97575,-0,8298466,3,97575,0,1409934,3,97575,-0,1732204
0,3063461,1,426719E-05,3,9825,-0,8258182,3,9825,0,5921721,3,9825,-0,4874342,0,3063461,1,326009E-05,3,9825,-0,8298466,3,9825,0,05639734,3,9825,-0,1530785
0,3068654,1,12459E-05,3,98925,-0,8459601,3,98925,0,6284276,3,98925,-0,4834058,0,3068654,1,174945E-05,3,98925,-0,8580453,3,98925,-0,008056764,3,98925,-0,1530785
0,3073846,8,560311E-06,3,996,-0,8580453,3,996,0,6042572,3,996,-0,4632639,0,3073846,9,231708E-06,3,996,-0,9144427,3,996,-0,05236896,3,996,-0,1611353
0,3079039,5,203327E-06,4,00275,-0,8580453,4,00275,0,5116045,4,00275,-0,4552071,0,3079039,9,231708E-06,4,00275,-0,9950103,4,00275,-0,1087663,4,00275,-0,1772488
0,3084231,1,510643E-06,4,0095,-0,8459601,4,0095,0,3786679,4,0095,-0,4511787,0,3084231,1,05745E-05,4,0095,-1,07155,4,0095,-0,1530785,4,0095,-0,1893339
0,3089423,-2,014191E-06,4,01625,-0,8298466,4,01625,0,2175326,4,01625,-0,4471503,0,3089423,1,05745E-05,4,01625,-1,123919,4,01625,-0,1490501,4,01625,-0,1973907
0,3094615,-4,36408E-06,4,023,-0,8137331,4,023,0,07251087,4,023,-0,4310368,0,3094615,1,174945E-05,4,023,-1,127947,4,023,-0,136965,4,023,-0,2054475
0,3099808,-4,699778E-06,4,02975,-0,8217899,4,02975,-0,02417029,4,02975,-0,4028382,0,3099808,1,174945E-05,4,02975,-1,103777,4,02975,-0,1007095,4,02975,-0,1973907
0,3105,-3,692683E-06,4,0365,-0,8379034,4,0365,-0,03625543,4,0365,-0,4068666,0,3105,9,231708E-06,4,0365,-1,059464,4,0365,-0,08459602,4,0365,-0,1853056
0,3110192,-4,531929E-06,4,04325,-0,8499885,4,04325,0,03625543,4,04325,-0,4310368,0,3110192,9,399557E-06,4,04325,-1,007095,4,04325,-0,07251087,4,04325,-0,169192
0,3115385,-5,706875E-06,4,05,-0,8499885,4,05,0,1450217,4,05,-0,4713207,0,3115385,1,174945E-05,4,05,-0,9466697,4,05,-0,06848249,4,05,-0,1651637
0,3120577,-5,539025E-06,4,05675,-0,8419318,4,05675,0,2578164,4,05675,-0,4834058,0,3120577,1,02388E-05,4,05675,-0,8943007,4,05675,-0,02819867,4,05675,-0,1853056
0,3125769,-8,392462E-07,4,0635,-0,8298466,4,0635,0,3464408,4,0635,-0,4713207,0,3125769,7,888914E-06,4,0635,-0,8902723,4,0635,0,004028382,4,0635,-0,2094758
0,3130962,5,035477E-06,4,07025,-0,8137331,4,07025,0,3867247,4,07025,-0,4390936,0,3130962,7,888914E-06,4,07025,-0,9063858,4,07025,0,4,07025,-0,2336462
0,3136154,9,567407E-06,4,077,-0,7976196,4,077,0,3786679,4,077,-0,4189517,0,3136154,6,881819E-06,4,077,-0,9305562,4,077,0,02417029,4,077,-0,2457313
0,3141346,1,12459E-05,4,08375,-0,7855344,4,08375,0,3464408,4,08375,-0,4350652,0,3141346,6,71397E-06,4,08375,-0,9426414,4,08375,0,08459602,4,08375,-0,2497597
0,3146538,1,359579E-05,4,0905,-0,7774777,4,0905,0,2981002,4,0905,-0,4149233,0,3146538,8,224613E-06,4,0905,-0,9506981,4,0905,0,1490501,4,0905,-0,2376745
0,3151731,1,594568E-05,4,09725,-0,7976196,4,09725,0,2860151,4,09725,-0,3746395,0,3151731,9,735257E-06,4,09725,-0,9587549,4,09725,0,1933623,4,09725,-0,2336462
0,3156923,1,695277E-05,4,104,-0,8056763,4,104,0,3182422,4,104,-0,4068666,0,3156923,9,903106E-06,4,104,-0,9547265,4,104,0,2135042,4,104,-0,221561
0,3162116,1,930266E-05,4,11075,-0,8056763,4,11075,0,3544976,4,11075,-0,443122,0,3162116,7,049668E-06,4,11075,-0,9506981,4,11075,0,1732204,4,11075,-0,2094758
0,3167308,1,980621E-05,4,1175,-0,8056763,4,1175,0,3544976,4,1175,-0,4310368,0,3167308,4,699778E-06,4,1175,-0,9506981,4,1175,0,08056764,4,1175,-0,1812772
0,31725,1,863126E-05,4,12425,-0,7935912,4,12425,0,3222705,4,12425,-0,4149233,0,31725,5,035477E-06,4,12425,-0,9587549,4,12425,-0,01208515,4,12425,-0,1611353
0,3177692,1,846342E-05,4,131,-0,7976196,4,131,0,2860151,4,131,-0,4229801,0,3177692,4,028382E-06,4,131,-0,9547265,4,131,-0,07251087,4,131,-0,1812772
0,3182885,1,712062E-05,4,13775,-0,8137331,4,13775,0,2417029,4,13775,-0,4270085,0,3182885,5,203327E-06,4,13775,-0,9547265,4,13775,-0,07251087,4,13775,-0,1893339
0,3188077,1,728847E-05,4,1445,-0,8258182,4,1445,0,1973907,4,1445,-0,4229801,0,3188077,1,007095E-05,4,1445,-0,9869535,4,1445,-0,07653925,4,1445,-0,2014191
0,3193269,1,779202E-05,4,15125,-0,8419318,4,15125,0,1450217,4,15125,-0,4310368,0,3193269,1,107805E-05,4,15125,-1,019181,4,15125,-0,09668116,4,15125,-0,1933623
0,3198462,1,275654E-05,4,158,-0,8419318,4,158,0,1127947,4,158,-0,4390936,0,3198462,8,560311E-06,4,158,-1,019181,4,158,-0,1047379,4,158,-0,1933623
0,3203654,9,063859E-06,4,16475,-0,8379034,4,16475,0,1329366,4,16475,-0,4471503,0,3203654,3,860533E-06,4,16475,-0,9748684,4,16475,-0,06445411,4,16475,-0,1812772
0,3208846,9,063859E-06,4,1715,-0,833875,4,1715,0,1933623,4,1715,-0,4270085,0,3208846,1,174945E-06,4,1715,-0,9224994,4,1715,-0,02014191,4,1715,-0,1732204
0,3214039,8,392462E-06,4,17825,-0,8379034,4,17825,0,2940719,4,17825,-0,4270085,0,3214039,2,517739E-06,4,17825,-0,9023575,4,17825,0,008056764,4,17825,-0,1732204
0,3219231,8,224613E-06,4,185,-0,8459601,4,185,0,3867247,4,185,-0,4189517,0,3219231,4,028382E-06,4,185,-0,9063858,4,185,0,04028382,4,185,-0,1530785
0,3224423,1,05745E-05,4,19175,-0,8580453,4,19175,0,4471503,4,19175,-0,3988098,0,3224423,5,371176E-06,4,19175,-0,9466697,4,19175,0,03222705,4,19175,-0,1571069
0,3229615,1,376364E-05,4,1985,-0,8499885,4,1985,0,4552071,4,1985,-0,4108949,0,3229615,8,392462E-06,4,1985,-0,9990387,4,1985,0,02417029,4,1985,-0,1611353
0,3234808,1,493858E-05,4,20525,-0,8217899,4,20525,0,4068666,4,20525,-0,4390936,0,3234808,9,735257E-06,4,20525,-1,043351,4,20525,0,01611353,4,20525,-0,1812772
0,324,1,493858E-05,4,212,-0,7895628,4,212,0,3303273,4,212,-0,443122,0,324,8,224613E-06,4,212,-1,055436,4,212,0,01611353,4,212,-0,2094758
0,3245192,1,560998E-05,4,21875,-0,7573358,4,21875,0,2658732,4,21875,-0,4310368,0,3245192,6,881819E-06,4,21875,-1,031266,4,21875,0,01208515,4,21875,-0,2255894
0,3250385,1,527428E-05,4,2255,-0,7573358,4,2255,0,2054475,4,2255,-0,4310368,0,3250385,6,881819E-06,4,2255,-0,9950103,4,2255,0,4,2255,-0,2296178
0,3255577,1,225299E-05,4,23225,-0,7774777,4,23225,0,169192,4,23225,-0,4350652,0,3255577,8,056764E-06,4,23225,-0,9506981,4,23225,0,008056764,4,23225,-0,2135042
0,3260769,1,19173E-05,4,239,-0,8419318,4,239,0,1651637,4,239,-0,4511787,0,3260769,8,224613E-06,4,239,-0,9023575,4,239,0,03222705,4,239,-0,1933623
0,3265962,1,560998E-05,4,24575,-0,9104142,4,24575,0,2014191,4,24575,-0,4511787,0,3265962,7,217517E-06,4,24575,-0,8943007,4,24575,0,0443122,4,24575,-0,1732204
0,3271154,1,863126E-05,4,2525,-0,9426414,4,2525,0,2618448,4,2525,-0,4632639,0,3271154,7,888914E-06,4,2525,-0,9184711,4,2525,0,4,2525,-0,1893339
0,3276346,1,863126E-05,4,25925,-0,9144427,4,25925,0,3303273,4,25925,-0,4350652,0,3276346,7,721065E-06,4,25925,-0,9345846,4,25925,-0,02819867,4,25925,-0,1732204
0,3281538,1,863126E-05,4,266,-0,8540169,4,266,0,3826963,4,266,-0,3665827,0,3281538,4,531929E-06,4,266,-0,9587549,4,266,-0,04834058,4,266,-0,1732204
0,3286731,1,930266E-05,4,27275,-0,7815061,4,27275,0,4229801,4,27275,-0,3786679,0,3286731,4,36408E-06,4,27275,-0,9748684,4,27275,-0,0443122,4,27275,-0,1853056
0,3291923,1,863126E-05,4,2795,-0,7251087,4,2795,0,3988098,4,2795,-0,4350652,0,3291923,6,54612E-06,4,2795,-0,9950103,4,2795,-0,02014191,4,2795,-0,2054475
0,3297116,1,326009E-05,4,28625,-0,7089952,4,28625,0,3222705,4,28625,-0,443122,0,3297116,6,378271E-06,4,28625,-1,011124,4,28625,0,4,28625,-0,2255894
0,3302308,9,567407E-06,4,293,-0,7210803,4,293,0,2175326,4,293,-0,443122,0,3302308,7,553216E-06,4,293,-1,027237,4,293,0,004028382,4,293,-0,2175326
0,33075,1,19173E-05,4,29975,-0,7613642,4,29975,0,136965,4,29975,-0,443122,0,33075,1,02388E-05,4,29975,-1,011124,4,29975,0,01208515,4,29975,-0,2175326
0,3312692,1,477073E-05,4,3065,-0,7976196,4,3065,0,1047379,4,3065,-0,443122,0,3312692,8,392462E-06,4,3065,-0,9829252,4,3065,0,02819867,4,3065,-0,2255894
0,3317885,1,628138E-05,4,31325,-0,8217899,4,31325,0,1208515,4,31325,-0,4632639,0,3317885,5,539025E-06,4,31325,-0,9506981,4,31325,0,04028382,4,31325,-0,2296178
0,3323077,1,863126E-05,4,32,-0,8499885,4,32,0,1772488,4,32,-0,4834058,0,3323077,4,867628E-06,4,32,-0,9305562,4,32,0,03222705,4,32,-0,2296178
0,3328269,2,064546E-05,4,32675,-0,8620737,4,32675,0,2537881,4,32675,-0,4713207,0,3328269,4,196231E-06,4,32675,-0,9224994,4,32675,0,03222705,4,32675,-0,221561
0,3333462,2,131685E-05,4,3335,-0,8701304,4,3335,0,3464408,4,3335,-0,443122,0,3333462,4,36408E-06,4,3335,-0,9345846,4,3335,0,01208515,4,3335,-0,2054475
0,3338654,2,014191E-05,4,34025,-0,866102,4,34025,0,4229801,4,34025,-0,443122,0,3338654,3,860533E-06,4,34025,-0,9587549,4,34025,-0,03625543,4,34025,-0,1812772
0,3343846,1,628138E-05,4,347,-0,8499885,4,347,0,4511787,4,347,-0,4471503,0,3343846,4,196231E-06,4,347,-0,97084,4,347,-0,08056764,4,347,-0,1853056
0,3349038,9,735257E-06,4,35375,-0,8137331,4,35375,0,4108949,4,35375,-0,4108949,0,3349038,9,231708E-06,4,35375,-0,9788967,4,35375,-0,07653925,4,35375,-0,1732204
0,3354231,4,531929E-06,4,3605,-0,7895628,4,3605,0,3303273,4,3605,-0,390753,0,3354231,1,258869E-05,4,3605,-0,97084,4,3605,-0,06445411,4,3605,-0,1772488
0,3359423,5,035478E-07,4,36725,-0,7734493,4,36725,0,2457313,4,36725,-0,3786679,0,3359423,9,567407E-06,4,36725,-0,9587549,4,36725,-0,008056764,4,36725,-0,1772488
0,3364615,-4,36408E-06,4,374,-0,7613642,4,374,0,1611353,4,374,-0,3826963,0,3364615,9,231708E-06,4,374,-0,9466697,4,374,0,04834058,4,374,-0,1812772
0,3369808,-9,567407E-06,4,38075,-0,7533074,4,38075,0,1168231,4,38075,-0,4189517,0,3369808,9,399557E-06,4,38075,-0,9426414,4,38075,0,07251087,4,38075,-0,1973907
0,3375,-1,174945E-05,4,3875,-0,7694209,4,3875,0,1168231,4,3875,-0,4592355,0,3375,8,560311E-06,4,3875,-0,9426414,4,3875,0,08459602,4,3875,-0,2094758
0,3380192,-1,15816E-05,4,39425,-0,7935912,4,39425,0,1812772,4,39425,-0,4471503,0,3380192,1,02388E-05,4,39425,-0,9426414,4,39425,0,08459602,4,39425,-0,2336462
0,3385385,-9,567407E-06,4,401,-0,8499885,4,401,0,2618448,4,401,-0,4471503,0,3385385,1,040665E-05,4,401,-0,9587549,4,401,0,06848249,4,401,-0,2255894
0,3390577,-6,881819E-06,4,40775,-0,8822156,4,40775,0,3424124,4,40775,-0,4592355,0,3390577,1,02388E-05,4,40775,-0,9869535,4,40775,0,01611353,4,40775,-0,2175326
0,3395769,-1,174945E-06,4,4145,-0,8983291,4,4145,0,390753,4,4145,-0,443122,0,3395769,9,231708E-06,4,4145,-1,003067,4,4145,-0,04028382,4,4145,-0,1893339
0,3400961,6,881819E-06,4,42125,-0,8902723,4,42125,0,4068666,4,42125,-0,4310368,0,3400961,5,874724E-06,4,42125,-0,9950103,4,42125,-0,07653925,4,42125,-0,1772488
0,3406154,1,19173E-05,4,428,-0,8701304,4,428,0,3947814,4,428,-0,4270085,0,3406154,4,531929E-06,4,428,-0,9748684,4,428,-0,0443122,4,428,-0,1772488
0,3411346,1,460288E-05,4,43475,-0,8459601,4,43475,0,3424124,4,43475,-0,4350652,0,3411346,6,378271E-06,4,43475,-0,9627832,4,43475,0,008056764,4,43475,-0,1853056
0,3416539,1,695277E-05,4,4415,-0,833875,4,4415,0,2779583,4,4415,-0,4471503,0,3416539,7,217517E-06,4,4415,-0,9627832,4,4415,0,0443122,4,4415,-0,2014191
0,3421731,1,795987E-05,4,44825,-0,8137331,4,44825,0,2175326,4,44825,-0,4471503,0,3421731,6,210422E-06,4,44825,-0,97084,4,44825,0,0886244,4,44825,-0,2054475
0,3426923,1,913481E-05,4,455,-0,8137331,4,455,0,1973907,4,455,-0,4270085,0,3426923,5,371176E-06,4,455,-0,9909819,4,455,0,06848249,4,455,-0,2135042
0,3432115,2,198825E-05,4,46175,-0,7855344,4,46175,0,2094758,4,46175,-0,4350652,0,3432115,3,860533E-06,4,46175,-1,011124,4,46175,0,02417029,4,46175,-0,2135042
0,3437308,2,500954E-05,4,4685,-0,7694209,4,4685,0,2417029,4,4685,-0,4552071,0,3437308,3,021286E-06,4,4685,-0,9990387,4,4685,-0,04028382,4,4685,-0,2094758
0,34425,2,786297E-05,4,47525,-0,749279,4,47525,0,2900435,4,47525,-0,4552071,0,34425,5,203327E-06,4,47525,-0,9668117,4,47525,-0,0886244,4,47525,-0,2014191
0,3447692,2,769513E-05,4,482,-0,7533074,4,482,0,3182422,4,482,-0,4350652,0,3447692,8,560311E-06,4,482,-0,9305562,4,482,-0,1127947,4,482,-0,2014191
0,3452885,2,400244E-05,4,48875,-0,7734493,4,48875,0,3101854,4,48875,-0,4189517,0,3452885,9,231708E-06,4,48875,-0,9063858,4,48875,-0,1127947,4,48875,-0,1853056
0,3458077,2,433814E-05,4,4955,-0,8137331,4,4955,0,2779583,4,4955,-0,4270085,0,3458077,9,231708E-06,4,4955,-0,9063858,4,4955,-0,07251087,4,4955,-0,1933623
0,3463269,2,652018E-05,4,50225,-0,8580453,4,50225,0,2457313,4,50225,-0,4350652,0,3463269,8,224613E-06,4,50225,-0,9265279,4,50225,-0,008056764,4,50225,-0,2014191
0,3468462,2,668803E-05,4,509,-0,8781872,4,509,0,2135042,4,509,-0,4511787,0,3468462,7,385367E-06,4,509,-0,9829252,4,509,0,03222705,4,509,-0,2054475
0,3473654,2,769513E-05,4,51575,-0,8701304,4,51575,0,1933623,4,51575,-0,4632639,0,3473654,5,874724E-06,4,51575,-1,019181,4,51575,0,04834058,4,51575,-0,2376745
0,3478846,2,987716E-05,4,5225,-0,833875,4,5225,0,1933623,4,5225,-0,4632639,0,3478846,9,063859E-06,4,5225,-1,027237,4,5225,0,07251087,4,5225,-0,2578164
0,3484038,2,803082E-05,4,52925,-0,7935912,4,52925,0,2255894,4,52925,-0,4672923,0,3484038,1,644923E-05,4,52925,-1,007095,4,52925,0,06445411,4,52925,-0,2457313
0,3489231,2,652018E-05,4,536,-0,7653925,4,536,0,2699016,4,536,-0,4552071,0,3489231,1,795987E-05,4,536,-0,9748684,4,536,0,02014191,4,536,-0,2336462
0,3494423,2,601663E-05,4,54275,-0,749279,4,54275,0,3222705,4,54275,-0,4390936,0,3494423,1,326009E-05,4,54275,-0,9345846,4,54275,-0,004028382,4,54275,-0,1973907
0,3499615,2,265965E-05,4,5495,-0,7694209,4,5495,0,3665827,4,5495,-0,4229801,0,3499615,9,735257E-06,4,5495,-0,8983291,4,5495,-0,02417029,4,5495,-0,1772488
0,3504808,2,064546E-05,4,55625,-0,8177615,4,55625,0,390753,4,55625,-0,4108949,0,3504808,9,231708E-06,4,55625,-0,8943007,4,55625,-0,004028382,4,55625,-0,136965
0,351,1,947051E-05,4,563,-0,866102,4,563,0,3706111,4,563,-0,4270085,0,351,1,040665E-05,4,563,-0,9224994,4,563,-0,004028382,4,563,-0,1571069
0,3515192,1,594568E-05,4,56975,-0,8943007,4,56975,0,3222705,4,56975,-0,443122,0,3515192,9,399557E-06,4,56975,-0,9668117,4,56975,0,01611353,4,56975,-0,1772488
0,3520385,1,12459E-05,4,5765,-0,8902723,4,5765,0,2497597,4,5765,-0,4511787,0,3520385,8,89601E-06,4,5765,-1,011124,4,5765,0,008056764,4,5765,-0,1973907
0,3525577,8,224613E-06,4,58325,-0,8620737,4,58325,0,1973907,4,58325,-0,4471503,0,3525577,1,141375E-05,4,58325,-1,043351,4,58325,-0,008056764,4,58325,-0,2175326
0,3530769,7,888914E-06,4,59,-0,8177615,4,59,0,1772488,4,59,-0,4310368,0,3530769,1,258869E-05,4,59,-1,039322,4,59,-0,01611353,4,59,-0,2376745
0,3535962,8,89601E-06,4,59675,-0,7774777,4,59675,0,1933623,4,59675,-0,4189517,0,3535962,9,903106E-06,4,59675,-1,011124,4,59675,-0,004028382,4,59675,-0,2376745
0,3541154,8,89601E-06,4,6035,-0,7613642,4,6035,0,221561,4,6035,-0,4350652,0,3541154,6,210422E-06,4,6035,-0,9668117,4,6035,0,01208515,4,6035,-0,2417029
0,3546346,8,224613E-06,4,61025,-0,7734493,4,61025,0,2578164,4,61025,-0,443122,0,3546346,4,531929E-06,4,61025,-0,9386129,4,61025,0,03222705,4,61025,-0,221561
0,3551539,8,224613E-06,4,617,-0,7976196,4,617,0,2981002,4,617,-0,4713207,0,3551539,4,36408E-06,4,617,-0,9144427,4,617,0,02819867,4,617,-0,2054475
0,3556731,5,874724E-06,4,62375,-0,8177615,4,62375,0,3182422,4,62375,-0,4632639,0,3556731,3,860533E-06,4,62375,-0,9144427,4,62375,0,01208515,4,62375,-0,1933623
0,3561923,2,517739E-06,4,6305,-0,8258182,4,6305,0,3262989,4,6305,-0,4471503,0,3561923,3,524834E-06,4,6305,-0,9265279,4,6305,-0,008056764,4,6305,-0,1933623
0,3567115,-1,678492E-07,4,63725,-0,8217899,4,63725,0,3464408,4,63725,-0,4632639,0,3567115,2,18204E-06,4,63725,-0,9265279,4,63725,-0,02819867,4,63725,-0,2135042
0,3572308,-2,349889E-06,4,644,-0,8217899,4,644,0,3424124,4,644,-0,4834058,0,3572308,2,18204E-06,4,644,-0,9466697,4,644,-0,02417029,4,644,-0,2336462
0,35775,-2,18204E-06,4,65075,-0,8419318,4,65075,0,3182422,4,65075,-0,4713207,0,35775,3,189135E-06,4,65075,-0,97084,4,65075,-0,02014191,4,65075,-0,2175326
0,3582692,-8,392462E-07,4,6575,-0,8620737,4,6575,0,2699016,4,6575,-0,4511787,0,3582692,2,517739E-06,4,6575,-1,015152,4,6575,-0,02417029,4,6575,-0,2175326
0,3587885,-1,174945E-06,4,66425,-0,866102,4,66425,0,2175326,4,66425,-0,4189517,0,3587885,3,356985E-06,4,66425,-1,035294,4,66425,-0,01611353,4,66425,-0,2175326
0,3593077,-1,510643E-06,4,671,-0,8499885,4,671,0,1812772,4,671,-0,4108949,0,3593077,6,042573E-06,4,671,-1,027237,4,671,0,004028382,4,671,-0,2255894
0,3598269,8,392462E-07,4,67775,-0,8177615,4,67775,0,169192,4,67775,-0,4229801,0,3598269,8,560311E-06,4,67775,-0,9950103,4,67775,0,03625543,4,67775,-0,2376745
0,3603462,3,860533E-06,4,6845,-0,7855344,4,6845,0,169192,4,6845,-0,443122,0,3603462,1,09102E-05,4,6845,-0,9668117,4,6845,0,09668116,4,6845,-0,2578164
0,3608654,5,706875E-06,4,69125,-0,749279,4,69125,0,1812772,4,69125,-0,4592355,0,3608654,1,107805E-05,4,69125,-0,9426414,4,69125,0,1087663,4,69125,-0,2537881
0,3613846,5,203327E-06,4,698,-0,7331654,4,698,0,2135042,4,698,-0,4672923,0,3613846,7,721065E-06,4,698,-0,9305562,4,698,0,05236896,4,698,-0,2336462
0,3619038,5,035477E-06,4,70475,-0,7291371,4,70475,0,2578164,4,70475,-0,4874342,0,3619038,8,392462E-06,4,70475,-0,9023575,4,70475,-0,01208515,4,70475,-0,1933623
0,3624231,6,210422E-06,4,7115,-0,749279,4,7115,0,3142138,4,7115,-0,4914626,0,3624231,1,05745E-05,4,7115,-0,8741588,4,7115,-0,06848249,4,7115,-0,1933623
0,3629423,8,560311E-06,4,71825,-0,7935912,4,71825,0,3706111,4,71825,-0,4592355,0,3629423,1,258869E-05,4,71825,-0,8741588,4,71825,-0,1087663,4,71825,-0,1772488
0,3634616,1,19173E-05,4,725,-0,8620737,4,725,0,4149233,4,725,-0,4350652,0,3634616,1,258869E-05,4,725,-0,9144427,4,725,-0,1047379,4,725,-0,1732204
0,3639808,1,359579E-05,4,73175,-0,9184711,4,73175,0,4270085,4,73175,-0,4108949,0,3639808,1,19173E-05,4,73175,-0,97084,4,73175,-0,08459602,4,73175,-0,1651637
0,3645,1,326009E-05,4,7385,-0,9386129,4,7385,0,3988098,4,7385,-0,3988098,0,3645,9,903106E-06,4,7385,-1,023209,4,7385,-0,06042573,4,7385,-0,1651637
0,3650192,1,02388E-05,4,74525,-0,9104142,4,74525,0,3142138,4,74525,-0,4149233,0,3650192,1,05745E-05,4,74525,-1,039322,4,74525,-0,02014191,4,74525,-0,1530785
0,3655385,7,888914E-06,4,752,-0,8620737,4,752,0,2175326,4,752,-0,4390936,0,3655385,1,225299E-05,4,752,-1,031266,4,752,0,02819867,4,752,-0,1853056
0,3660577,6,881819E-06,4,75875,-0,8097047,4,75875,0,1450217,4,75875,-0,4270085,0,3660577,1,309224E-05,4,75875,-1,003067,4,75875,0,09265278,4,75875,-0,2054475
0,3665769,7,385367E-06,4,7655,-0,7653925,4,7655,0,1168231,4,7655,-0,4028382,0,3665769,1,460288E-05,4,7655,-0,9668117,4,7655,0,1248798,4,7655,-0,2255894
0,3670962,9,231708E-06,4,77225,-0,7533074,4,77225,0,1450217,4,77225,-0,3988098,0,3670962,1,678492E-05,4,77225,-0,9386129,4,77225,0,1248798,4,77225,-0,2255894
0,3676154,1,05745E-05,4,779,-0,7694209,4,779,0,2054475,4,779,-0,4108949,0,3676154,1,460288E-05,4,779,-0,9144427,4,779,0,1047379,4,779,-0,2175326
0,3681346,1,02388E-05,4,78575,-0,7935912,4,78575,0,2860151,4,78575,-0,4390936,0,3681346,1,12459E-05,4,78575,-0,9023575,4,78575,0,05236896,4,78575,-0,1933623
0,3686539,7,553216E-06,4,7925,-0,8137331,4,7925,0,3544976,4,7925,-0,4632639,0,3686539,7,385367E-06,4,7925,-0,9144427,4,7925,-0,004028382,4,7925,-0,1732204
0,3691731,5,874724E-06,4,79925,-0,8258182,4,79925,0,4068666,4,79925,-0,4672923,0,3691731,6,881819E-06,4,79925,-0,9386129,4,79925,-0,06042573,4,79925,-0,1490501
0,3696923,7,049668E-06,4,806,-0,8298466,4,806,0,4471503,4,806,-0,4592355,0,3696923,1,05745E-05,4,806,-0,9587549,4,806,-0,1168231,4,806,-0,1490501
0,3702115,1,15816E-05,4,81275,-0,833875,4,81275,0,4552071,4,81275,-0,4350652,0,3702115,1,326009E-05,4,81275,-0,9950103,4,81275,-0,1450217,4,81275,-0,1611353
0,3707308,1,409934E-05,4,8195,-0,8298466,4,8195,0,4149233,4,8195,-0,4229801,0,3707308,1,12459E-05,4,8195,-1,007095,4,8195,-0,136965,4,8195,-0,1772488
0,37125,1,309224E-05,4,82625,-0,833875,4,82625,0,3343557,4,82625,-0,4149233,0,37125,7,888914E-06,4,82625,-1,023209,4,82625,-0,1047379,4,82625,-0,1772488
0,3717692,1,15816E-05,4,833,-0,8540169,4,833,0,2417029,4,833,-0,4189517,0,3717692,7,553216E-06,4,833,-1,035294,4,833,-0,08056764,4,833,-0,1651637
0,3722885,8,560311E-06,4,83975,-0,8781872,4,83975,0,1571069,4,83975,-0,4350652,0,3722885,9,231708E-06,4,83975,-1,051408,4,83975,-0,04028382,4,83975,-0,169192
0,3728077,6,54612E-06,4,8465,-0,9023575,4,8465,0,09265278,4,8465,-0,4390936,0,3728077,7,049668E-06,4,8465,-1,055436,4,8465,0,008056764,4,8465,-0,1732204
0,3733269,7,217517E-06,4,85325,-0,9104142,4,85325,0,05639734,4,85325,-0,4149233,0,3733269,3,692683E-06,4,85325,-1,051408,4,85325,0,03222705,4,85325,-0,1893339
0,3738461,7,888914E-06,4,86,-0,8741588,4,86,0,07653925,4,86,-0,3947814,0,3738461,3,860533E-06,4,86,-1,039322,4,86,0,03625543,4,86,-0,2135042
0,3743654,8,89601E-06,4,86675,-0,8217899,4,86675,0,1530785,4,86675,-0,4149233,0,3743654,5,203327E-06,4,86675,-1,003067,4,86675,0,04834058,4,86675,-0,2376745
0,3748846,9,231708E-06,4,8735,-0,7774777,4,8735,0,2376745,4,8735,-0,4511787,0,3748846,5,203327E-06,4,8735,-0,9547265,4,8735,0,06445411,4,8735,-0,2457313
0,3754039,7,888914E-06,4,88025,-0,749279,4,88025,0,3101854,4,88025,-0,4471503,0,3754039,5,706875E-06,4,88025,-0,9063858,4,88025,0,07251087,4,88025,-0,2336462
0,3759231,7,217517E-06,4,887,-0,7371938,4,887,0,3464408,4,887,-0,4310368,0,3759231,5,203327E-06,4,887,-0,8781872,4,887,0,06848249,4,887,-0,2296178
0,3764423,7,217517E-06,4,89375,-0,7734493,4,89375,0,3665827,4,89375,-0,4108949,0,3764423,4,867628E-06,4,89375,-0,866102,4,89375,0,07653925,4,89375,-0,2094758
0,3769615,6,378271E-06,4,9005,-0,8217899,4,9005,0,3706111,4,9005,-0,4149233,0,3769615,5,203327E-06,4,9005,-0,8862439,4,9005,0,06042573,4,9005,-0,1933623
0,3774808,4,867628E-06,4,90725,-0,8620737,4,90725,0,3504692,4,90725,-0,4028382,0,3774808,5,203327E-06,4,90725,-0,9265279,4,90725,0,06445411,4,90725,-0,1732204
0,378,3,860533E-06,4,914,-0,8781872,4,914,0,3182422,4,914,-0,4108949,0,378,4,531929E-06,4,914,-0,9627832,4,914,0,08459602,4,914,-0,1772488
0,3785192,4,531929E-06,4,92075,-0,866102,4,92075,0,2860151,4,92075,-0,4189517,0,3785192,5,706875E-06,4,92075,-0,9788967,4,92075,0,09668116,4,92075,-0,1973907
0,3790385,6,54612E-06,4,9275,-0,833875,4,9275,0,2537881,4,9275,-0,4189517,0,3790385,8,224613E-06,4,9275,-0,9869535,4,9275,0,08056764,4,9275,-0,2054475
0,3795577,6,210422E-06,4,93425,-0,7976196,4,93425,0,2296178,4,93425,-0,4310368,0,3795577,9,399557E-06,4,93425,-0,97084,4,93425,0,05236896,4,93425,-0,2094758
0,3800769,4,196231E-06,4,941,-0,7815061,4,941,0,2054475,4,941,-0,443122,0,3800769,7,217517E-06,4,941,-0,9587549,4,941,0,02417029,4,941,-0,2175326
0,3805962,5,203327E-06,4,94775,-0,7815061,4,94775,0,1853056,4,94775,-0,4270085,0,3805962,7,888914E-06,4,94775,-0,9587549,4,94775,-0,03222705,4,94775,-0,1933623
0,3811154,8,560311E-06,4,9545,-0,7935912,4,9545,0,1933623,4,9545,-0,4189517,0,3811154,1,05745E-05,4,9545,-0,9668117,4,9545,-0,08056764,4,9545,-0,1812772
0,3816346,1,12459E-05,4,96125,-0,8137331,4,96125,0,2135042,4,96125,-0,4189517,0,3816346,9,399557E-06,4,96125,-0,9587549,4,96125,-0,09668116,4,96125,-0,169192
0,3821538,1,05745E-05,4,968,-0,8419318,4,968,0,2457313,4,968,-0,4310368,0,3821538,5,874724E-06,4,968,-0,9587549,4,968,-0,07251087,4,968,-0,1772488
0,3826731,1,05745E-05,4,97475,-0,8540169,4,97475,0,2658732,4,97475,-0,443122,0,3826731,7,049668E-06,4,97475,-0,9668117,4,97475,-0,0443122,4,97475,-0,1853056
0,3831923,1,460288E-05,4,9815,-0,8620737,4,9815,0,2779583,4,9815,-0,4310368,0,3831923,9,567407E-06,4,9815,-0,9869535,4,9815,-0,02014191,4,9815,-0,1973907
0,3837115,1,795987E-05,4,98825,-0,8459601,4,98825,0,2699016,4,98825,-0,4189517,0,3837115,1,007095E-05,4,98825,-0,9869535,4,98825,0,004028382,4,98825,-0,2094758
0,3842308,1,913481E-05,4,995,-0,8379034,4,995,0,2537881,4,995,-0,4189517,0,3842308,8,224613E-06,4,995,-0,9909819,4,995,0,03625543,4,995,-0,2175326
0,38475,1,896696E-05,5,00175,-0,8056763,5,00175,0,2537881,5,00175,-0,4390936,0,38475,5,539025E-06,5,00175,-0,9869535,5,00175,0,04834058,5,00175,-0,221561
0,3852692,1,779202E-05,5,0085,-0,7855344,5,0085,0,2376745,5,0085,-0,4390936,0,3852692,4,028382E-06,5,0085,-0,9627832,5,0085,0,04028382,5,0085,-0,2336462
0,3857885,1,460288E-05,5,01525,-0,7815061,5,01525,0,2417029,5,01525,-0,4471503,0,3857885,5,203327E-06,5,01525,-0,9265279,5,01525,0,0443122,5,01525,-0,2175326
0,3863077,1,393149E-05,5,022,-0,8097047,5,022,0,2578164,5,022,-0,4471503,0,3863077,8,224613E-06,5,022,-0,9023575,5,022,0,06848249,5,022,-0,221561
0,3868269,1,594568E-05,5,02875,-0,8620737,5,02875,0,27393,5,02875,-0,4189517,0,3868269,8,560311E-06,5,02875,-0,9144427,5,02875,0,0886244,5,02875,-0,2054475
0,3873461,1,594568E-05,5,0355,-0,9063858,5,0355,0,306157,5,0355,-0,4189517,0,3873461,6,210422E-06,5,0355,-0,9587549,5,0355,0,0886244,5,0355,-0,1973907
0,3878654,1,577783E-05,5,04225,-0,9063858,5,04225,0,3262989,5,04225,-0,4270085,0,3878654,3,524834E-06,5,04225,-0,9950103,5,04225,0,07251087,5,04225,-0,1933623
0,3883846,1,661708E-05,5,049,-0,8741588,5,049,0,3303273,5,049,-0,4350652,0,3883846,5,203327E-06,5,049,-1,011124,5,049,0,04834058,5,049,-0,2014191
0,3889039,1,326009E-05,5,05575,-0,8258182,5,05575,0,3222705,5,05575,-0,4471503,0,3889039,7,888914E-06,5,05575,-1,011124,5,05575,0,004028382,5,05575,-0,2014191
0,3894231,8,560311E-06,5,0625,-0,7734493,5,0625,0,2981002,5,0625,-0,4350652,0,3894231,7,721065E-06,5,0625,-0,9950103,5,0625,-0,03625543,5,0625,-0,1973907
0,3899423,7,888914E-06,5,06925,-0,7533074,5,06925,0,2618448,5,06925,-0,3988098,0,3899423,4,867628E-06,5,06925,-0,9668117,5,06925,-0,05236896,5,06925,-0,1893339
0,3904615,9,903106E-06,5,076,-0,7653925,5,076,0,2376745,5,076,-0,3947814,0,3904615,3,524834E-06,5,076,-0,9547265,5,076,-0,02819867,5,076,-0,2094758
0,3909808,1,15816E-05,5,08275,-0,801648,5,08275,0,2255894,5,08275,-0,4310368,0,3909808,5,539025E-06,5,08275,-0,9668117,5,08275,-0,02417029,5,08275,-0,2054475
0,3915,1,309224E-05,5,0895,-0,8419318,5,0895,0,1973907,5,0895,-0,4511787,0,3915,7,888914E-06,5,0895,-0,9909819,5,0895,-0,06445411,5,0895,-0,2094758
0,3920192,1,376364E-05,5,09625,-0,8741588,5,09625,0,1732204,5,09625,-0,4753491,0,3920192,9,567407E-06,5,09625,-0,9950103,5,09625,-0,07251087,5,09625,-0,221561
0,3925385,1,376364E-05,5,103,-0,8902723,5,103,0,1651637,5,103,-0,4793774,0,3925385,1,19173E-05,5,103,-0,9990387,5,103,-0,02417029,5,103,-0,2135042
0,3930577,1,359579E-05,5,10975,-0,8822156,5,10975,0,1812772,5,10975,-0,4350652,0,3930577,1,141375E-05,5,10975,-0,9990387,5,10975,0,01208515,5,10975,-0,2014191
0,3935769,1,174945E-05,5,1165,-0,8540169,5,1165,0,2175326,5,1165,-0,3826963,0,3935769,1,107805E-05,5,1165,-0,9909819,5,1165,0,03222705,5,1165,-0,2054475
0,3940962,8,89601E-06,5,12325,-0,8298466,5,12325,0,2658732,5,12325,-0,3746395,0,3940962,1,326009E-05,5,12325,-0,9587549,5,12325,0,05236896,5,12325,-0,1973907
0,3946154,9,735257E-06,5,13,-0,8056763,5,13,0,3142138,5,13,-0,3947814,0,3946154,1,05745E-05,5,13,-0,9265279,5,13,0,0443122,5,13,-0,1893339
0,3951346,1,12459E-05,5,13675,-0,7815061,5,13675,0,3303273,5,13675,-0,4229801,0,3951346,5,203327E-06,5,13675,-0,9063858,5,13675,0,03222705,5,13675,-0,1732204
0,3956538,1,242084E-05,5,1435,-0,7613642,5,1435,0,3303273,5,1435,-0,4350652,0,3956538,3,189135E-06,5,1435,-0,9023575,5,1435,0,05236896,5,1435,-0,1732204
0,3961731,1,493858E-05,5,15025,-0,7573358,5,15025,0,306157,5,15025,-0,4390936,0,3961731,5,203327E-06,5,15025,-0,9063858,5,15025,0,0886244,5,15025,-0,2175326
0,3966923,1,846342E-05,5,157,-0,749279,5,157,0,2699016,5,157,-0,443122,0,3966923,7,553216E-06,5,157,-0,9265279,5,157,0,09668116,5,157,-0,2376745
0,3972116,1,997406E-05,5,16375,-0,7613642,5,16375,0,2417029,5,16375,-0,4390936,0,3972116,7,888914E-06,5,16375,-0,9587549,5,16375,0,05236896,5,16375,-0,2336462
0,3977308,1,795987E-05,5,1705,-0,7895628,5,1705,0,2497597,5,1705,-0,4108949,0,3977308,6,54612E-06,5,1705,-0,9829252,5,1705,-0,02014191,5,1705,-0,1973907
0,39825,1,493858E-05,5,17725,-0,8217899,5,17725,0,2699016,5,17725,-0,3867247,0,39825,4,531929E-06,5,17725,-0,9829252,5,17725,-0,05236896,5,17725,-0,1651637
0,3987692,1,12459E-05,5,184,-0,8540169,5,184,0,2658732,5,184,-0,3826963,0,3987692,4,196231E-06,5,184,-0,9668117,5,184,-0,04834058,5,184,-0,169192
0,3992885,7,217517E-06,5,19075,-0,8781872,5,19075,0,2618448,5,19075,-0,3988098,0,3992885,4,196231E-06,5,19075,-0,9587549,5,19075,0,008056764,5,19075,-0,169192
0,3998077,6,378271E-06,5,1975,-0,8701304,5,1975,0,2618448,5,1975,-0,4390936,0,3998077,1,510643E-06,5,1975,-0,97084,5,1975,0,02417029,5,1975,-0,1772488
0,4003269,9,231708E-06,5,20425,-0,8459601,5,20425,0,2578164,5,20425,-0,4511787,0,4003269,-8,392462E-07,5,20425,-0,9829252,5,20425,-0,01208515,5,20425,-0,1853056
0,4008462,1,409934E-05,5,211,-0,8177615,5,211,0,27393,5,211,-0,4350652,0,4008462,0,5,211,-0,9748684,5,211,-0,02014191,5,211,-0,1772488
0,4013654,1,661708E-05,5,21775,-0,7935912,5,21775,0,2819867,5,21775,-0,4270085,0,4013654,3,356985E-06,5,21775,-0,9426414,5,21775,-0,008056764,5,21775,-0,1812772
0,4018846,1,460288E-05,5,2245,-0,8097047,5,2245,0,2819867,5,2245,-0,4310368,0,4018846,5,874724E-06,5,2245,-0,9345846,5,2245,0,03625543,5,2245,-0,2175326
0,4024039,9,903106E-06,5,23125,-0,8459601,5,23125,0,2940719,5,23125,-0,4390936,0,4024039,1,02388E-05,5,23125,-0,9305562,5,23125,0,09668116,5,23125,-0,2296178
0,4029231,9,567407E-06,5,238,-0,8781872,5,238,0,3182422,5,238,-0,4552071,0,4029231,1,258869E-05,5,238,-0,9547265,5,238,0,09265278,5,238,-0,2296178
0,4034423,1,258869E-05,5,24475,-0,8862439,5,24475,0,3343557,5,24475,-0,4270085,0,4034423,1,02388E-05,5,24475,-0,9788967,5,24475,0,04834058,5,24475,-0,2054475
0,4039615,1,594568E-05,5,2515,-0,8540169,5,2515,0,3303273,5,2515,-0,4471503,0,4039615,8,560311E-06,5,2515,-0,9829252,5,2515,0,03625543,5,2515,-0,1772488
0,4044808,1,762417E-05,5,25825,-0,8137331,5,25825,0,3383841,5,25825,-0,4874342,0,4044808,9,567407E-06,5,25825,-0,9668117,5,25825,0,03625543,5,25825,-0,1853056
0,405,1,728847E-05,5,265,-0,7694209,5,265,0,3383841,5,265,-0,495491,0,405,1,02388E-05,5,265,-0,9547265,5,265,0,008056764,5,265,-0,2054475
0,4055192,1,527428E-05,5,27175,-0,7694209,5,27175,0,3343557,5,27175,-0,4592355,0,4055192,9,231708E-06,5,27175,-0,9547265,5,27175,-0,05236896,5,27175,-0,2175326
