Label: R BICEPS BRACHII: EMG 1 Sampling frequency: 1,925926e+003 Number of points: 58682 start: 0,000000e+000 Unit: Volts Domain Unit: s
Label: R BICEPS BRACHII: Acc 1.X Sampling frequency: 1,481481e+002 Number of points: 4514 start: 0,000000e+000 Unit: g Domain Unit: s
Label: R BICEPS BRACHII: Acc 1.Y Sampling frequency: 1,481481e+002 Number of points: 4514 start: 0,000000e+000 Unit: g Domain Unit: s
Label: R BICEPS BRACHII: Acc 1.Z Sampling frequency: 1,481481e+002 Number of points: 4514 start: 0,000000e+000 Unit: g Domain Unit: s
Label: R TRICEPS BRACHII: EMG 2 Sampling frequency: 1,925926e+003 Number of points: 58682 start: 0,000000e+000 Unit: Volts Domain Unit: s
Label: R TRICEPS BRACHII: Acc 2.X Sampling frequency: 1,481481e+002 Number of points: 4514 start: 0,000000e+000 Unit: g Domain Unit: s
Label: R TRICEPS BRACHII: Acc 2.Y Sampling frequency: 1,481481e+002 Number of points: 4514 start: 0,000000e+000 Unit: g Domain Unit: s
Label: R TRICEPS BRACHII: Acc 2.Z Sampling frequency: 1,481481e+002 Number of points: 4514 start: 0,000000e+000 Unit: g Domain Unit: s
Start Trigger Method: None
Stop Trigger Method: None
 
X[s],"R BICEPS BRACHII: EMG 1",X[s],"R BICEPS BRACHII: Acc 1.X",X[s],"R BICEPS BRACHII: Acc 1.Y",X[s],"R BICEPS BRACHII: Acc 1.Z",X[s],"R TRICEPS BRACHII: EMG 2",X[s],"R TRICEPS BRACHII: Acc 2.X",X[s],"R TRICEPS BRACHII: Acc 2.Y",X[s],"R TRICEPS BRACHII: Acc 2.Z"
0.000000,0,0.000000,0,0.000000,0,0.000000,0,0.000000,0,0.000000,0,0.000000,0,0.000000,0
0,0005192308,0,0,00675,0,0,00675,0,0,00675,0,0,0005192308,0,0,00675,0,0,00675,0,0,00675,0
0,001038462,0,0,0135,0,0,0135,0,0,0135,0,0,001038462,0,0,0135,0,0,0135,0,0,0135,0
0,001557692,0,0,02025,0,0,02025,0,0,02025,0,0,001557692,0,0,02025,0,0,02025,0,0,02025,0
0,002076923,0,0,027,0,0,027,0,0,027,0,0,002076923,0,0,027,0,0,027,0,0,027,0
0,002596154,0,0,03375,0,0,03375,0,0,03375,0,0,002596154,0,0,03375,0,0,03375,0,0,03375,0
0,003115385,0,0,0405,-0,8379034,0,0405,0,1571069,0,0405,-0,1853056,0,003115385,0,0,0405,-0,9184711,0,0405,0,27393,0,0405,-0,07653925
0,003634615,0,0,04725,-0,8419318,0,04725,0,1571069,0,04725,-0,1933623,0,003634615,0,0,04725,-0,9144427,0,04725,0,27393,0,04725,-0,07251087
0,004153846,0,0,054,-0,8459601,0,054,0,1530785,0,054,-0,1893339,0,004153846,0,0,054,-0,9224994,0,054,0,2658732,0,054,-0,07251087
0,004673077,0,0,06075,-0,8419318,0,06075,0,1571069,0,06075,-0,1853056,0,004673077,0,0,06075,-0,9265279,0,06075,0,2618448,0,06075,-0,07251087
0,005192308,0,0,0675,-0,8298466,0,0675,0,1611353,0,0675,-0,1853056,0,005192308,0,0,0675,-0,9305562,0,0675,0,2537881,0,0675,-0,07251087
0,005711539,0,0,07425,-0,8298466,0,07425,0,1651637,0,07425,-0,1933623,0,005711539,0,0,07425,-0,9305562,0,07425,0,2578164,0,07425,-0,06445411
0,006230769,0,0,081,-0,8298466,0,081,0,1611353,0,081,-0,1933623,0,006230769,0,0,081,-0,9265279,0,081,0,2578164,0,081,-0,06445411
0,00675,0,0,08775,-0,8298466,0,08775,0,1611353,0,08775,-0,1893339,0,00675,0,0,08775,-0,9265279,0,08775,0,2699016,0,08775,-0,06445411
0,007269231,0,0,0945,-0,8298466,0,0945,0,1611353,0,0945,-0,1893339,0,007269231,0,0,0945,-0,9265279,0,0945,0,2618448,0,0945,-0,07653925
0,007788462,0,0,10125,-0,8298466,0,10125,0,1651637,0,10125,-0,1933623,0,007788462,0,0,10125,-0,9184711,0,10125,0,2658732,0,10125,-0,06848249
0,008307693,0,0,108,-0,833875,0,108,0,1651637,0,108,-0,1933623,0,008307693,0,0,108,-0,9144427,0,108,0,2618448,0,108,-0,07653925
0,008826924,0,0,11475,-0,8217899,0,11475,0,169192,0,11475,-0,1893339,0,008826924,0,0,11475,-0,9224994,0,11475,0,2578164,0,11475,-0,07653925
0,009346154,0,0,1215,-0,8258182,0,1215,0,1611353,0,1215,-0,1933623,0,009346154,0,0,1215,-0,9144427,0,1215,0,2537881,0,1215,-0,07251087
0,009865385,0,0,12825,-0,8217899,0,12825,0,1611353,0,12825,-0,1893339,0,009865385,0,0,12825,-0,9184711,0,12825,0,2578164,0,12825,-0,07251087
0,01038462,0,0,135,-0,8217899,0,135,0,1571069,0,135,-0,1933623,0,01038462,0,0,135,-0,9144427,0,135,0,2497597,0,135,-0,07653925
0,01090385,0,0,14175,-0,8258182,0,14175,0,1571069,0,14175,-0,1933623,0,01090385,0,0,14175,-0,9184711,0,14175,0,2537881,0,14175,-0,07251087
0,01142308,0,0,1485,-0,833875,0,1485,0,1571069,0,1485,-0,1933623,0,01142308,0,0,1485,-0,9144427,0,1485,0,2618448,0,1485,-0,07653925
0,01194231,0,0,15525,-0,833875,0,15525,0,1611353,0,15525,-0,1973907,0,01194231,0,0,15525,-0,9144427,0,15525,0,2578164,0,15525,-0,08056764
0,01246154,0,0,162,-0,8419318,0,162,0,1571069,0,162,-0,2014191,0,01246154,0,0,162,-0,9184711,0,162,0,2578164,0,162,-0,07653925
0,01298077,0,0,16875,-0,8379034,0,16875,0,1651637,0,16875,-0,1933623,0,01298077,0,0,16875,-0,9224994,0,16875,0,2537881,0,16875,-0,07653925
0,0135,0,0,1755,-0,8419318,0,1755,0,1611353,0,1755,-0,1933623,0,0135,0,0,1755,-0,9184711,0,1755,0,2578164,0,1755,-0,07251087
0,01401923,0,0,18225,-0,833875,0,18225,0,169192,0,18225,-0,1853056,0,01401923,0,0,18225,-0,9144427,0,18225,0,2578164,0,18225,-0,06848249
0,01453846,0,0,189,-0,8298466,0,189,0,1772488,0,189,-0,1853056,0,01453846,0,0,189,-0,9224994,0,189,0,2578164,0,189,-0,06445411
0,01505769,0,0,19575,-0,8298466,0,19575,0,1732204,0,19575,-0,1853056,0,01505769,0,0,19575,-0,9224994,0,19575,0,2578164,0,19575,-0,06445411
0,01557692,0,0,2025,-0,8258182,0,2025,0,1732204,0,2025,-0,1893339,0,01557692,0,0,2025,-0,9265279,0,2025,0,2618448,0,2025,-0,06848249
0,01609615,0,0,20925,-0,8298466,0,20925,0,1732204,0,20925,-0,1812772,0,01609615,0,0,20925,-0,9184711,0,20925,0,2658732,0,20925,-0,06848249
0,01661539,0,0,216,-0,833875,0,216,0,169192,0,216,-0,1933623,0,01661539,0,0,216,-0,9224994,0,216,0,2658732,0,216,-0,05639734
0,01713462,0,0,22275,-0,833875,0,22275,0,1732204,0,22275,-0,1893339,0,01713462,0,0,22275,-0,9224994,0,22275,0,2658732,0,22275,-0,05639734
0,01765385,0,0,2295,-0,8298466,0,2295,0,1651637,0,2295,-0,1853056,0,01765385,0,0,2295,-0,9224994,0,2295,0,2658732,0,2295,-0,06445411
0,01817308,0,0,23625,-0,8298466,0,23625,0,1651637,0,23625,-0,1812772,0,01817308,0,0,23625,-0,9265279,0,23625,0,2779583,0,23625,-0,06445411
0,01869231,0,0,243,-0,8258182,0,243,0,1611353,0,243,-0,1812772,0,01869231,0,0,243,-0,9224994,0,243,0,27393,0,243,-0,06848249
0,01921154,0,0,24975,-0,8258182,0,24975,0,1611353,0,24975,-0,1772488,0,01921154,0,0,24975,-0,9265279,0,24975,0,27393,0,24975,-0,07251087
0,01973077,0,0,2565,-0,8258182,0,2565,0,1571069,0,2565,-0,1853056,0,01973077,0,0,2565,-0,9265279,0,2565,0,2699016,0,2565,-0,07653925
0,02025,0,0,26325,-0,8258182,0,26325,0,1490501,0,26325,-0,1893339,0,02025,0,0,26325,-0,9305562,0,26325,0,2699016,0,26325,-0,08056764
0,02076923,0,0,27,-0,8298466,0,27,0,1450217,0,27,-0,1893339,0,02076923,0,0,27,-0,9265279,0,27,0,2699016,0,27,-0,07653925
0,02128846,0,0,27675,-0,833875,0,27675,0,1450217,0,27675,-0,1893339,0,02128846,0,0,27675,-0,9265279,0,27675,0,2699016,0,27675,-0,07653925
0,02180769,0,0,2835,-0,8298466,0,2835,0,1450217,0,2835,-0,1893339,0,02180769,0,0,2835,-0,9224994,0,2835,0,2618448,0,2835,-0,08056764
0,02232692,0,0,29025,-0,8379034,0,29025,0,1530785,0,29025,-0,1933623,0,02232692,0,0,29025,-0,9224994,0,29025,0,2578164,0,29025,-0,07251087
0,02284615,0,0,297,-0,8298466,0,297,0,1571069,0,297,-0,1893339,0,02284615,0,0,297,-0,9224994,0,297,0,2537881,0,297,-0,07653925
0,02336538,0,0,30375,-0,8298466,0,30375,0,1651637,0,30375,-0,1812772,0,02336538,0,0,30375,-0,9184711,0,30375,0,2537881,0,30375,-0,06042573
0,02388461,0,0,3105,-0,8298466,0,3105,0,1651637,0,3105,-0,1853056,0,02388461,0,0,3105,-0,9144427,0,3105,0,2537881,0,3105,-0,07251087
0,02440385,0,0,31725,-0,8258182,0,31725,0,169192,0,31725,-0,1893339,0,02440385,0,0,31725,-0,9184711,0,31725,0,2537881,0,31725,-0,06848249
0,02492308,0,0,324,-0,8258182,0,324,0,169192,0,324,-0,1893339,0,02492308,0,0,324,-0,9104142,0,324,0,2537881,0,324,-0,07251087
0,02544231,0,0,33075,-0,8258182,0,33075,0,1651637,0,33075,-0,1933623,0,02544231,0,0,33075,-0,9184711,0,33075,0,2457313,0,33075,-0,06848249
0,02596154,0,0,3375,-0,8258182,0,3375,0,1611353,0,3375,-0,1893339,0,02596154,0,0,3375,-0,9144427,0,3375,0,2457313,0,3375,-0,06848249
0,02648077,0,0,34425,-0,8217899,0,34425,0,1571069,0,34425,-0,1893339,0,02648077,0,0,34425,-0,9184711,0,34425,0,2537881,0,34425,-0,07251087
0,027,0,0,351,-0,8258182,0,351,0,1571069,0,351,-0,1933623,0,027,0,0,351,-0,9184711,0,351,0,2497597,0,351,-0,08459602
0,02751923,0,0,35775,-0,8217899,0,35775,0,1530785,0,35775,-0,1893339,0,02751923,0,0,35775,-0,9184711,0,35775,0,2658732,0,35775,-0,07251087
0,02803846,0,0,3645,-0,8217899,0,3645,0,1490501,0,3645,-0,1933623,0,02803846,0,0,3645,-0,9224994,0,3645,0,2618448,0,3645,-0,07251087
0,02855769,0,0,37125,-0,8217899,0,37125,0,1490501,0,37125,-0,1893339,0,02855769,0,0,37125,-0,9184711,0,37125,0,2699016,0,37125,-0,07251087
0,02907692,0,0,378,-0,8298466,0,378,0,1450217,0,378,-0,1853056,0,02907692,0,0,378,-0,9184711,0,378,0,2658732,0,378,-0,07251087
0,02959615,0,0,38475,-0,833875,0,38475,0,1571069,0,38475,-0,1893339,0,02959615,0,0,38475,-0,9184711,0,38475,0,2699016,0,38475,-0,06848249
0,03011538,0,0,3915,-0,833875,0,3915,0,1490501,0,3915,-0,1893339,0,03011538,0,0,3915,-0,9224994,0,3915,0,27393,0,3915,-0,06848249
0,03063462,0,0,39825,-0,8379034,0,39825,0,1611353,0,39825,-0,1853056,0,03063462,0,0,39825,-0,9265279,0,39825,0,27393,0,39825,-0,07251087
0,03115385,0,0,405,-0,8419318,0,405,0,1611353,0,405,-0,1893339,0,03115385,0,0,405,-0,9265279,0,405,0,2699016,0,405,-0,07653925
0,03167308,0,0,41175,-0,8379034,0,41175,0,1651637,0,41175,-0,1853056,0,03167308,0,0,41175,-0,9224994,0,41175,0,27393,0,41175,-0,07251087
0,03219231,0,0,4185,-0,833875,0,4185,0,1651637,0,4185,-0,1893339,0,03219231,0,0,4185,-0,9224994,0,4185,0,2699016,0,4185,-0,07653925
0,03271154,0,0,42525,-0,8298466,0,42525,0,1651637,0,42525,-0,1893339,0,03271154,0,0,42525,-0,9184711,0,42525,0,2699016,0,42525,-0,07653925
0,03323077,0,0,432,-0,8298466,0,432,0,1571069,0,432,-0,1893339,0,03323077,0,0,432,-0,9184711,0,432,0,2658732,0,432,-0,08056764
0,03375,0,0,43875,-0,8298466,0,43875,0,1571069,0,43875,-0,1853056,0,03375,0,0,43875,-0,9184711,0,43875,0,2699016,0,43875,-0,07251087
0,03426923,0,0,4455,-0,8298466,0,4455,0,1490501,0,4455,-0,1933623,0,03426923,0,0,4455,-0,9144427,0,4455,0,2658732,0,4455,-0,08056764
0,03478846,0,0,45225,-0,833875,0,45225,0,1530785,0,45225,-0,1893339,0,03478846,0,0,45225,-0,9063858,0,45225,0,2658732,0,45225,-0,06848249
0,03530769,0,0,459,-0,8379034,0,459,0,1530785,0,459,-0,1893339,0,03530769,0,0,459,-0,9144427,0,459,0,2658732,0,459,-0,07653925
0,03582693,0,0,46575,-0,833875,0,46575,0,1571069,0,46575,-0,1893339,0,03582693,0,0,46575,-0,9144427,0,46575,0,2618448,0,46575,-0,07251087
0,03634615,0,0,4725,-0,833875,0,4725,0,1611353,0,4725,-0,1933623,0,03634615,0,0,4725,-0,9184711,0,4725,0,2578164,0,4725,-0,07653925
0,03686538,0,0,47925,-0,8379034,0,47925,0,1611353,0,47925,-0,1893339,0,03686538,0,0,47925,-0,9265279,0,47925,0,2658732,0,47925,-0,07251087
0,03738461,0,0,486,-0,833875,0,486,0,1611353,0,486,-0,1973907,0,03738461,0,0,486,-0,9265279,0,486,0,2618448,0,486,-0,07251087
0,03790385,0,0,49275,-0,8258182,0,49275,0,1651637,0,49275,-0,1933623,0,03790385,0,0,49275,-0,9305562,0,49275,0,2699016,0,49275,-0,07653925
0,03842308,0,0,4995,-0,833875,0,4995,0,1571069,0,4995,-0,1973907,0,03842308,0,0,4995,-0,9265279,0,4995,0,2658732,0,4995,-0,07251087
0,03894231,0,0,50625,-0,8298466,0,50625,0,1571069,0,50625,-0,1973907,0,03894231,0,0,50625,-0,9265279,0,50625,0,2618448,0,50625,-0,07653925
0,03946154,0,0,513,-0,833875,0,513,0,1611353,0,513,-0,1933623,0,03946154,0,0,513,-0,9265279,0,513,0,2618448,0,513,-0,07251087
0,03998077,0,0,51975,-0,8258182,0,51975,0,1571069,0,51975,-0,1933623,0,03998077,0,0,51975,-0,9184711,0,51975,0,2578164,0,51975,-0,07251087
0,0405,1,309224E-05,0,5265,-0,8258182,0,5265,0,1611353,0,5265,-0,1853056,0,0405,6,881819E-06,0,5265,-0,9144427,0,5265,0,2497597,0,5265,-0,07653925
0,04101923,1,09102E-05,0,53325,-0,8258182,0,53325,0,1530785,0,53325,-0,1853056,0,04101923,6,54612E-06,0,53325,-0,9184711,0,53325,0,2497597,0,53325,-0,08056764
0,04153846,7,888914E-06,0,54,-0,833875,0,54,0,1530785,0,54,-0,1893339,0,04153846,6,210422E-06,0,54,-0,9224994,0,54,0,2497597,0,54,-0,08459602
0,04205769,1,141375E-05,0,54675,-0,8419318,0,54675,0,1611353,0,54675,-0,1812772,0,04205769,7,721065E-06,0,54675,-0,9265279,0,54675,0,2537881,0,54675,-0,07653925
0,04257692,1,661708E-05,0,5535,-0,8459601,0,5535,0,1571069,0,5535,-0,1933623,0,04257692,1,15816E-05,0,5535,-0,9345846,0,5535,0,2537881,0,5535,-0,08056764
0,04309615,1,795987E-05,0,56025,-0,8379034,0,56025,0,1571069,0,56025,-0,1893339,0,04309615,1,426719E-05,0,56025,-0,9386129,0,56025,0,2618448,0,56025,-0,06848249
0,04361539,1,527428E-05,0,567,-0,8419318,0,567,0,1571069,0,567,-0,1933623,0,04361539,1,05745E-05,0,567,-0,9386129,0,567,0,2618448,0,567,-0,07251087
0,04413462,1,19173E-05,0,57375,-0,8419318,0,57375,0,1571069,0,57375,-0,1893339,0,04413462,4,531929E-06,0,57375,-0,9426414,0,57375,0,2779583,0,57375,-0,06042573
0,04465385,9,735257E-06,0,5805,-0,833875,0,5805,0,1571069,0,5805,-0,1853056,0,04465385,4,699778E-06,0,5805,-0,9386129,0,5805,0,2699016,0,5805,-0,06445411
0,04517308,9,231708E-06,0,58725,-0,8298466,0,58725,0,1611353,0,58725,-0,1853056,0,04517308,6,378271E-06,0,58725,-0,9386129,0,58725,0,2618448,0,58725,-0,06445411
0,04569231,1,007095E-05,0,594,-0,8379034,0,594,0,1571069,0,594,-0,1853056,0,04569231,7,049668E-06,0,594,-0,9265279,0,594,0,2618448,0,594,-0,06848249
0,04621154,1,05745E-05,0,60075,-0,8379034,0,60075,0,1611353,0,60075,-0,1933623,0,04621154,4,531929E-06,0,60075,-0,9184711,0,60075,0,2618448,0,60075,-0,07251087
0,04673077,1,05745E-05,0,6075,-0,833875,0,6075,0,1611353,0,6075,-0,1933623,0,04673077,2,853437E-06,0,6075,-0,9104142,0,6075,0,2658732,0,6075,-0,07653925
0,04725,1,19173E-05,0,61425,-0,833875,0,61425,0,1611353,0,61425,-0,1973907,0,04725,2,517739E-06,0,61425,-0,9023575,0,61425,0,2618448,0,61425,-0,07653925
0,04776923,1,460288E-05,0,621,-0,8217899,0,621,0,1651637,0,621,-0,2014191,0,04776923,2,853437E-06,0,621,-0,9023575,0,621,0,2618448,0,621,-0,08056764
0,04828846,1,510643E-05,0,62775,-0,8177615,0,62775,0,1611353,0,62775,-0,1973907,0,04828846,4,867628E-06,0,62775,-0,8983291,0,62775,0,2578164,0,62775,-0,08459602
0,04880769,1,275654E-05,0,6345,-0,8177615,0,6345,0,1651637,0,6345,-0,2014191,0,04880769,6,378271E-06,0,6345,-0,8983291,0,6345,0,2497597,0,6345,-0,0886244
0,04932692,1,107805E-05,0,64125,-0,8177615,0,64125,0,1651637,0,64125,-0,2014191,0,04932692,6,378271E-06,0,64125,-0,9023575,0,64125,0,2537881,0,64125,-0,09668116
0,04984615,1,05745E-05,0,648,-0,8177615,0,648,0,1611353,0,648,-0,2014191,0,04984615,7,553216E-06,0,648,-0,9063858,0,648,0,2537881,0,648,-0,09668116
0,05036538,1,09102E-05,0,65475,-0,8258182,0,65475,0,1571069,0,65475,-0,2054475,0,05036538,8,89601E-06,0,65475,-0,9104142,0,65475,0,2618448,0,65475,-0,09265278
0,05088462,1,225299E-05,0,6615,-0,8217899,0,6615,0,1571069,0,6615,-0,2094758,0,05088462,8,560311E-06,0,6615,-0,9184711,0,6615,0,2658732,0,6615,-0,09668116
0,05140385,1,309224E-05,0,66825,-0,8298466,0,66825,0,1530785,0,66825,-0,2054475,0,05140385,7,888914E-06,0,66825,-0,9224994,0,66825,0,27393,0,66825,-0,09265278
0,05192308,1,275654E-05,0,675,-0,833875,0,675,0,1490501,0,675,-0,2054475,0,05192308,8,89601E-06,0,675,-0,9265279,0,675,0,2779583,0,675,-0,09265278
0,05244231,1,15816E-05,0,68175,-0,8379034,0,68175,0,1490501,0,68175,-0,1973907,0,05244231,1,15816E-05,0,68175,-0,9305562,0,68175,0,2819867,0,68175,-0,09265278
0,05296154,1,05745E-05,0,6885,-0,8379034,0,6885,0,1450217,0,6885,-0,1933623,0,05296154,1,376364E-05,0,6885,-0,9265279,0,6885,0,2779583,0,6885,-0,08459602
0,05348077,9,735257E-06,0,69525,-0,8379034,0,69525,0,1490501,0,69525,-0,1973907,0,05348077,1,292439E-05,0,69525,-0,9265279,0,69525,0,2699016,0,69525,-0,08459602
0,054,9,231708E-06,0,702,-0,8379034,0,702,0,1490501,0,702,-0,1933623,0,054,1,15816E-05,0,702,-0,9265279,0,702,0,2699016,0,702,-0,07653925
0,05451923,7,888914E-06,0,70875,-0,8419318,0,70875,0,1571069,0,70875,-0,1973907,0,05451923,1,225299E-05,0,70875,-0,9265279,0,70875,0,2699016,0,70875,-0,07653925
0,05503846,6,378271E-06,0,7155,-0,8419318,0,7155,0,1571069,0,7155,-0,1893339,0,05503846,1,258869E-05,0,7155,-0,9224994,0,7155,0,2578164,0,7155,-0,07653925
0,05555769,7,721065E-06,0,72225,-0,8379034,0,72225,0,1651637,0,72225,-0,1933623,0,05555769,1,258869E-05,0,72225,-0,9265279,0,72225,0,2537881,0,72225,-0,07251087
0,05607693,9,231708E-06,0,729,-0,8379034,0,729,0,1611353,0,729,-0,1933623,0,05607693,1,05745E-05,0,729,-0,9265279,0,729,0,2497597,0,729,-0,07653925
0,05659616,1,05745E-05,0,73575,-0,833875,0,73575,0,1571069,0,73575,-0,1933623,0,05659616,7,888914E-06,0,73575,-0,9305562,0,73575,0,2497597,0,73575,-0,07653925
0,05711538,1,05745E-05,0,7425,-0,8298466,0,7425,0,1571069,0,7425,-0,1933623,0,05711538,7,721065E-06,0,7425,-0,9224994,0,7425,0,2497597,0,7425,-0,07653925
0,05763461,9,567407E-06,0,74925,-0,8177615,0,74925,0,1611353,0,74925,-0,1973907,0,05763461,9,231708E-06,0,74925,-0,9224994,0,74925,0,2537881,0,74925,-0,07653925
0,05815385,8,89601E-06,0,756,-0,8217899,0,756,0,1571069,0,756,-0,1973907,0,05815385,8,728161E-06,0,756,-0,9265279,0,756,0,2497597,0,756,-0,07653925
0,05867308,1,02388E-05,0,76275,-0,8258182,0,76275,0,1571069,0,76275,-0,2014191,0,05867308,9,063859E-06,0,76275,-0,9144427,0,76275,0,2537881,0,76275,-0,07653925
0,05919231,1,040665E-05,0,7695,-0,8258182,0,7695,0,1490501,0,7695,-0,2014191,0,05919231,8,392462E-06,0,7695,-0,9144427,0,7695,0,2537881,0,7695,-0,08056764
0,05971154,8,560311E-06,0,77625,-0,8258182,0,77625,0,1530785,0,77625,-0,1973907,0,05971154,7,553216E-06,0,77625,-0,9144427,0,77625,0,2578164,0,77625,-0,07653925
0,06023077,8,224613E-06,0,783,-0,8379034,0,783,0,1571069,0,783,-0,1933623,0,06023077,8,89601E-06,0,783,-0,9144427,0,783,0,2537881,0,783,-0,0886244
0,06075,9,399557E-06,0,78975,-0,833875,0,78975,0,1571069,0,78975,-0,1933623,0,06075,9,231708E-06,0,78975,-0,9144427,0,78975,0,2578164,0,78975,-0,0886244
0,06126923,8,89601E-06,0,7965,-0,8419318,0,7965,0,1651637,0,7965,-0,1933623,0,06126923,8,560311E-06,0,7965,-0,9184711,0,7965,0,2537881,0,7965,-0,07653925
0,06178846,7,888914E-06,0,80325,-0,8379034,0,80325,0,1571069,0,80325,-0,1933623,0,06178846,8,560311E-06,0,80325,-0,9224994,0,80325,0,2658732,0,80325,-0,07653925
0,06230769,1,05745E-05,0,81,-0,8379034,0,81,0,1651637,0,81,-0,1933623,0,06230769,8,392462E-06,0,81,-0,9265279,0,81,0,2658732,0,81,-0,07251087
0,06282692,1,19173E-05,0,81675,-0,8379034,0,81675,0,169192,0,81675,-0,1893339,0,06282692,1,15816E-05,0,81675,-0,9265279,0,81675,0,2618448,0,81675,-0,07251087
0,06334615,1,107805E-05,0,8235,-0,833875,0,8235,0,1651637,0,8235,-0,1933623,0,06334615,1,812772E-05,0,8235,-0,9265279,0,8235,0,2658732,0,8235,-0,07653925
0,06386539,1,02388E-05,0,83025,-0,8298466,0,83025,0,1651637,0,83025,-0,1853056,0,06386539,1,963836E-05,0,83025,-0,9224994,0,83025,0,2699016,0,83025,-0,07653925
0,06438462,1,02388E-05,0,837,-0,8298466,0,837,0,1611353,0,837,-0,1893339,0,06438462,1,829557E-05,0,837,-0,9265279,0,837,0,27393,0,837,-0,07653925
0,06490385,1,05745E-05,0,84375,-0,8298466,0,84375,0,1571069,0,84375,-0,1893339,0,06490385,1,678492E-05,0,84375,-0,9305562,0,84375,0,2699016,0,84375,-0,07653925
0,06542308,1,05745E-05,0,8505,-0,833875,0,8505,0,1611353,0,8505,-0,1893339,0,06542308,1,275654E-05,0,8505,-0,9184711,0,8505,0,27393,0,8505,-0,06848249
0,06594231,1,15816E-05,0,85725,-0,8298466,0,85725,0,1611353,0,85725,-0,1893339,0,06594231,1,12459E-05,0,85725,-0,9184711,0,85725,0,2699016,0,85725,-0,07251087
0,06646154,1,174945E-05,0,864,-0,8379034,0,864,0,1611353,0,864,-0,1893339,0,06646154,1,443503E-05,0,864,-0,9184711,0,864,0,2699016,0,864,-0,07251087
0,06698077,9,735257E-06,0,87075,-0,8298466,0,87075,0,1571069,0,87075,-0,1893339,0,06698077,1,460288E-05,0,87075,-0,9184711,0,87075,0,2658732,0,87075,-0,06042573
0,0675,7,888914E-06,0,8775,-0,8298466,0,8775,0,1530785,0,8775,-0,1893339,0,0675,1,19173E-05,0,8775,-0,9224994,0,8775,0,2618448,0,8775,-0,06445411
0,06801923,8,392462E-06,0,88425,-0,8298466,0,88425,0,1530785,0,88425,-0,1812772,0,06801923,8,056764E-06,0,88425,-0,9184711,0,88425,0,2578164,0,88425,-0,06848249
0,06853846,9,231708E-06,0,891,-0,8298466,0,891,0,1530785,0,891,-0,1893339,0,06853846,7,217517E-06,0,891,-0,9184711,0,891,0,2578164,0,891,-0,07653925
0,0690577,9,567407E-06,0,89775,-0,833875,0,89775,0,1530785,0,89775,-0,1853056,0,0690577,9,231708E-06,0,89775,-0,9184711,0,89775,0,2658732,0,89775,-0,06848249
0,06957693,8,560311E-06,0,9045,-0,8379034,0,9045,0,1490501,0,9045,-0,1933623,0,06957693,1,040665E-05,0,9045,-0,9265279,0,9045,0,2658732,0,9045,-0,07653925
0,07009616,8,224613E-06,0,91125,-0,833875,0,91125,0,1530785,0,91125,-0,1853056,0,07009616,6,881819E-06,0,91125,-0,9345846,0,91125,0,2658732,0,91125,-0,07653925
0,07061539,6,881819E-06,0,918,-0,8379034,0,918,0,1571069,0,918,-0,1933623,0,07061539,3,524834E-06,0,918,-0,9345846,0,918,0,2618448,0,918,-0,08459602
0,07113462,6,042573E-06,0,92475,-0,833875,0,92475,0,1530785,0,92475,-0,1933623,0,07113462,3,189135E-06,0,92475,-0,9265279,0,92475,0,2658732,0,92475,-0,08056764
0,07165385,6,881819E-06,0,9315,-0,8298466,0,9315,0,1571069,0,9315,-0,1973907,0,07165385,6,54612E-06,0,9315,-0,9265279,0,9315,0,2537881,0,9315,-0,07653925
0,07217308,7,553216E-06,0,93825,-0,8298466,0,93825,0,1530785,0,93825,-0,1933623,0,07217308,7,049668E-06,0,93825,-0,9224994,0,93825,0,2497597,0,93825,-0,08056764
0,0726923,7,721065E-06,0,945,-0,8298466,0,945,0,1490501,0,945,-0,1973907,0,0726923,5,874724E-06,0,945,-0,9144427,0,945,0,2497597,0,945,-0,08459602
0,07321154,8,224613E-06,0,95175,-0,833875,0,95175,0,1490501,0,95175,-0,1933623,0,07321154,6,042573E-06,0,95175,-0,9184711,0,95175,0,2578164,0,95175,-0,08056764
0,07373077,8,224613E-06,0,9585,-0,833875,0,9585,0,1530785,0,9585,-0,1933623,0,07373077,5,203327E-06,0,9585,-0,9184711,0,9585,0,2537881,0,9585,-0,07251087
0,07425,7,721065E-06,0,96525,-0,8379034,0,96525,0,1611353,0,96525,-0,1893339,0,07425,5,035477E-06,0,96525,-0,9184711,0,96525,0,2618448,0,96525,-0,07653925
0,07476923,8,392462E-06,0,972,-0,833875,0,972,0,1530785,0,972,-0,1933623,0,07476923,5,539025E-06,0,972,-0,9184711,0,972,0,2578164,0,972,-0,07653925
0,07528846,8,89601E-06,0,97875,-0,833875,0,97875,0,1611353,0,97875,-0,1853056,0,07528846,7,553216E-06,0,97875,-0,9224994,0,97875,0,2658732,0,97875,-0,06848249
0,07580769,8,224613E-06,0,9855,-0,8258182,0,9855,0,1651637,0,9855,-0,1933623,0,07580769,9,231708E-06,0,9855,-0,9184711,0,9855,0,2618448,0,9855,-0,07653925
0,07632692,7,217517E-06,0,99225,-0,8258182,0,99225,0,1651637,0,99225,-0,1933623,0,07632692,8,89601E-06,0,99225,-0,9184711,0,99225,0,2618448,0,99225,-0,07653925
0,07684615,7,217517E-06,0,999,-0,8258182,0,999,0,169192,0,999,-0,1933623,0,07684615,7,721065E-06,0,999,-0,9184711,0,999,0,2578164,0,999,-0,08056764
0,07736538,8,728161E-06,1,00575,-0,8217899,1,00575,0,169192,1,00575,-0,1973907,0,07736538,7,385367E-06,1,00575,-0,9184711,1,00575,0,2658732,1,00575,-0,08056764
0,07788461,9,903106E-06,1,0125,-0,8298466,1,0125,0,1611353,1,0125,-0,1973907,0,07788461,6,54612E-06,1,0125,-0,9184711,1,0125,0,2618448,1,0125,-0,08459602
0,07840385,8,89601E-06,1,01925,-0,8298466,1,01925,0,169192,1,01925,-0,1973907,0,07840385,7,721065E-06,1,01925,-0,9184711,1,01925,0,2578164,1,01925,-0,08056764
0,07892308,9,231708E-06,1,026,-0,8379034,1,026,0,1651637,1,026,-0,1933623,0,07892308,7,553216E-06,1,026,-0,9184711,1,026,0,2618448,1,026,-0,07653925
0,07944231,1,12459E-05,1,03275,-0,833875,1,03275,0,1611353,1,03275,-0,1893339,0,07944231,5,203327E-06,1,03275,-0,9184711,1,03275,0,2658732,1,03275,-0,08056764
0,07996154,1,426719E-05,1,0395,-0,8379034,1,0395,0,1571069,1,0395,-0,1893339,0,07996154,3,860533E-06,1,0395,-0,9224994,1,0395,0,2618448,1,0395,-0,07653925
0,08048077,1,393149E-05,1,04625,-0,8419318,1,04625,0,1611353,1,04625,-0,1893339,0,08048077,4,196231E-06,1,04625,-0,9224994,1,04625,0,2699016,1,04625,-0,07251087
0,081,1,258869E-05,1,053,-0,8419318,1,053,0,1530785,1,053,-0,1893339,0,081,5,203327E-06,1,053,-0,9265279,1,053,0,2699016,1,053,-0,06848249
0,08151923,1,19173E-05,1,05975,-0,833875,1,05975,0,1530785,1,05975,-0,1893339,0,08151923,5,203327E-06,1,05975,-0,9265279,1,05975,0,2618448,1,05975,-0,06848249
0,08203846,1,309224E-05,1,0665,-0,8298466,1,0665,0,1611353,1,0665,-0,1933623,0,08203846,3,692683E-06,1,0665,-0,9265279,1,0665,0,2658732,1,0665,-0,08056764
0,08255769,1,326009E-05,1,07325,-0,8258182,1,07325,0,1571069,1,07325,-0,1933623,0,08255769,2,853437E-06,1,07325,-0,9184711,1,07325,0,2618448,1,07325,-0,07653925
0,08307692,1,258869E-05,1,08,-0,8258182,1,08,0,1571069,1,08,-0,1893339,0,08307692,7,217517E-06,1,08,-0,9184711,1,08,0,2618448,1,08,-0,08056764
0,08359616,1,359579E-05,1,08675,-0,8217899,1,08675,0,1571069,1,08675,-0,1893339,0,08359616,8,89601E-06,1,08675,-0,9184711,1,08675,0,2658732,1,08675,-0,07653925
0,08411539,1,393149E-05,1,0935,-0,8298466,1,0935,0,1530785,1,0935,-0,1933623,0,08411539,7,385367E-06,1,0935,-0,9184711,1,0935,0,2578164,1,0935,-0,08459602
0,08463462,1,292439E-05,1,10025,-0,8298466,1,10025,0,1530785,1,10025,-0,1933623,0,08463462,6,54612E-06,1,10025,-0,9184711,1,10025,0,2578164,1,10025,-0,0886244
0,08515385,1,275654E-05,1,107,-0,833875,1,107,0,1571069,1,107,-0,1973907,0,08515385,7,888914E-06,1,107,-0,9224994,1,107,0,2618448,1,107,-0,08459602
0,08567308,1,174945E-05,1,11375,-0,8298466,1,11375,0,1490501,1,11375,-0,1973907,0,08567308,8,560311E-06,1,11375,-0,9345846,1,11375,0,2578164,1,11375,-0,08459602
0,08619231,8,392462E-06,1,1205,-0,833875,1,1205,0,1490501,1,1205,-0,2014191,0,08619231,7,888914E-06,1,1205,-0,9305562,1,1205,0,2578164,1,1205,-0,08459602
0,08671154,7,553216E-06,1,12725,-0,8298466,1,12725,0,1530785,1,12725,-0,1933623,0,08671154,8,560311E-06,1,12725,-0,9265279,1,12725,0,2618448,1,12725,-0,07653925
0,08723077,9,903106E-06,1,134,-0,8258182,1,134,0,1611353,1,134,-0,1933623,0,08723077,8,560311E-06,1,134,-0,9265279,1,134,0,2578164,1,134,-0,07653925
0,08775,1,05745E-05,1,14075,-0,8258182,1,14075,0,1651637,1,14075,-0,1893339,0,08775,8,89601E-06,1,14075,-0,9184711,1,14075,0,2578164,1,14075,-0,08459602
0,08826923,9,399557E-06,1,1475,-0,833875,1,1475,0,1651637,1,1475,-0,1893339,0,08826923,7,553216E-06,1,1475,-0,9144427,1,1475,0,2618448,1,1475,-0,08056764
0,08878846,7,553216E-06,1,15425,-0,833875,1,15425,0,169192,1,15425,-0,1853056,0,08878846,5,874724E-06,1,15425,-0,9224994,1,15425,0,2658732,1,15425,-0,08056764
0,0893077,7,049668E-06,1,161,-0,8379034,1,161,0,1611353,1,161,-0,1933623,0,0893077,4,36408E-06,1,161,-0,9184711,1,161,0,2618448,1,161,-0,07653925
0,08982693,9,735257E-06,1,16775,-0,8419318,1,16775,0,1651637,1,16775,-0,1933623,0,08982693,4,36408E-06,1,16775,-0,9224994,1,16775,0,2699016,1,16775,-0,06445411
0,09034616,1,326009E-05,1,1745,-0,8419318,1,1745,0,1611353,1,1745,-0,1893339,0,09034616,6,881819E-06,1,1745,-0,9265279,1,1745,0,2578164,1,1745,-0,06445411
0,09086539,1,544213E-05,1,18125,-0,8379034,1,18125,0,1571069,1,18125,-0,1853056,0,09086539,7,888914E-06,1,18125,-0,9305562,1,18125,0,2618448,1,18125,-0,06042573
0,09138462,1,560998E-05,1,188,-0,833875,1,188,0,1490501,1,188,-0,1853056,0,09138462,8,224613E-06,1,188,-0,9345846,1,188,0,2658732,1,188,-0,06848249
0,09190385,1,544213E-05,1,19475,-0,833875,1,19475,0,1530785,1,19475,-0,1853056,0,09190385,8,224613E-06,1,19475,-0,9265279,1,19475,0,2618448,1,19475,-0,06042573
0,09242308,1,577783E-05,1,2015,-0,8298466,1,2015,0,1490501,1,2015,-0,1853056,0,09242308,8,224613E-06,1,2015,-0,9265279,1,2015,0,2618448,1,2015,-0,06848249
0,09294231,1,678492E-05,1,20825,-0,8298466,1,20825,0,1651637,1,20825,-0,1893339,0,09294231,8,728161E-06,1,20825,-0,9184711,1,20825,0,2618448,1,20825,-0,08056764
0,09346154,1,779202E-05,1,215,-0,833875,1,215,0,1651637,1,215,-0,1893339,0,09346154,1,02388E-05,1,215,-0,9265279,1,215,0,2658732,1,215,-0,06848249
0,09398077,1,594568E-05,1,22175,-0,833875,1,22175,0,1732204,1,22175,-0,1853056,0,09398077,1,19173E-05,1,22175,-0,9224994,1,22175,0,2658732,1,22175,-0,07251087
0,0945,1,225299E-05,1,2285,-0,833875,1,2285,0,1772488,1,2285,-0,1893339,0,0945,1,174945E-05,1,2285,-0,9144427,1,2285,0,2618448,1,2285,-0,08056764
0,09501923,1,309224E-05,1,23525,-0,8258182,1,23525,0,1812772,1,23525,-0,1853056,0,09501923,1,225299E-05,1,23525,-0,9104142,1,23525,0,2578164,1,23525,-0,08056764
0,09553846,1,510643E-05,1,242,-0,8217899,1,242,0,1772488,1,242,-0,1893339,0,09553846,1,309224E-05,1,242,-0,9063858,1,242,0,2578164,1,242,-0,08056764
0,09605769,1,275654E-05,1,24875,-0,8097047,1,24875,0,1933623,1,24875,-0,1812772,0,09605769,1,174945E-05,1,24875,-0,9063858,1,24875,0,2537881,1,24875,-0,08459602
0,09657692,1,12459E-05,1,2555,-0,8097047,1,2555,0,2135042,1,2555,-0,1853056,0,09657692,1,141375E-05,1,2555,-0,8983291,1,2555,0,2537881,1,2555,-0,07653925
0,09709615,1,309224E-05,1,26225,-0,8056763,1,26225,0,2417029,1,26225,-0,1973907,0,09709615,1,225299E-05,1,26225,-0,9104142,1,26225,0,2537881,1,26225,-0,08459602
0,09761538,1,527428E-05,1,269,-0,8137331,1,269,0,2658732,1,269,-0,2094758,0,09761538,1,258869E-05,1,269,-0,9144427,1,269,0,2537881,1,269,-0,08459602
0,09813461,1,628138E-05,1,27575,-0,801648,1,27575,0,27393,1,27575,-0,2135042,0,09813461,1,292439E-05,1,27575,-0,9184711,1,27575,0,2618448,1,27575,-0,07653925
0,09865385,1,728847E-05,1,2825,-0,7815061,1,2825,0,2699016,1,2825,-0,2175326,0,09865385,1,309224E-05,1,2825,-0,9104142,1,2825,0,2578164,1,2825,-0,06848249
0,09917308,1,611353E-05,1,28925,-0,7734493,1,28925,0,2578164,1,28925,-0,2094758,0,09917308,1,12459E-05,1,28925,-0,9063858,1,28925,0,2658732,1,28925,-0,06848249
0,09969231,1,292439E-05,1,296,-0,7895628,1,296,0,2255894,1,296,-0,1973907,0,09969231,8,89601E-06,1,296,-0,9063858,1,296,0,2658732,1,296,-0,08056764
0,1002115,1,02388E-05,1,30275,-0,8137331,1,30275,0,1772488,1,30275,-0,1893339,0,1002115,6,881819E-06,1,30275,-0,9144427,1,30275,0,2699016,1,30275,-0,07653925
0,1007308,9,063859E-06,1,3095,-0,8298466,1,3095,0,1248798,1,3095,-0,1732204,0,1007308,6,042573E-06,1,3095,-0,9224994,1,3095,0,2578164,1,3095,-0,09265278
0,10125,1,15816E-05,1,31625,-0,8419318,1,31625,0,08459602,1,31625,-0,1772488,0,10125,6,881819E-06,1,31625,-0,9345846,1,31625,0,2578164,1,31625,-0,1087663
0,1017692,1,510643E-05,1,323,-0,8580453,1,323,0,05236896,1,323,-0,1853056,0,1017692,7,888914E-06,1,323,-0,9466697,1,323,0,2537881,1,323,-0,1127947
0,1022885,1,594568E-05,1,32975,-0,8459601,1,32975,0,06042573,1,32975,-0,1933623,0,1022885,8,560311E-06,1,32975,-0,9466697,1,32975,0,2376745,1,32975,-0,1248798
0,1028077,1,443503E-05,1,3365,-0,8258182,1,3365,0,1007095,1,3365,-0,1893339,0,1028077,6,881819E-06,1,3365,-0,9506981,1,3365,0,2255894,1,3365,-0,1289082
0,1033269,1,326009E-05,1,34325,-0,7976196,1,34325,0,1611353,1,34325,-0,1732204,0,1033269,2,517739E-06,1,34325,-0,9547265,1,34325,0,2135042,1,34325,-0,1248798
0,1038462,1,15816E-05,1,35,-0,7694209,1,35,0,1933623,1,35,-0,169192,0,1038462,1,678492E-07,1,35,-0,9466697,1,35,0,1933623,1,35,-0,1289082
0,1043654,1,007095E-05,1,35675,-0,7452506,1,35675,0,2014191,1,35675,-0,1812772,0,1043654,1,678492E-06,1,35675,-0,9345846,1,35675,0,1933623,1,35675,-0,1168231
0,1048846,9,903106E-06,1,3635,-0,7331654,1,3635,0,1853056,1,3635,-0,2094758,0,1048846,5,874724E-06,1,3635,-0,9305562,1,3635,0,2014191,1,3635,-0,1087663
0,1054038,8,560311E-06,1,37025,-0,749279,1,37025,0,1490501,1,37025,-0,2537881,0,1054038,9,567407E-06,1,37025,-0,9224994,1,37025,0,2135042,1,37025,-0,1087663
0,1059231,8,89601E-06,1,377,-0,7734493,1,377,0,1168231,1,377,-0,2860151,0,1059231,9,231708E-06,1,377,-0,9305562,1,377,0,2175326,1,377,-0,1127947
0,1064423,1,040665E-05,1,38375,-0,8056763,1,38375,0,09265278,1,38375,-0,27393,0,1064423,5,874724E-06,1,38375,-0,9386129,1,38375,0,2296178,1,38375,-0,1087663
0,1069615,9,231708E-06,1,3905,-0,8379034,1,3905,0,09668116,1,3905,-0,2497597,0,1069615,5,035477E-06,1,3905,-0,9426414,1,3905,0,221561,1,3905,-0,1127947
0,1074808,9,231708E-06,1,39725,-0,8620737,1,39725,0,1289082,1,39725,-0,2094758,0,1074808,6,210422E-06,1,39725,-0,9466697,1,39725,0,2255894,1,39725,-0,1127947
0,108,1,09102E-05,1,404,-0,8781872,1,404,0,1853056,1,404,-0,1772488,0,108,9,063859E-06,1,404,-0,9466697,1,404,0,2175326,1,404,-0,1127947
0,1085192,1,19173E-05,1,41075,-0,8862439,1,41075,0,2296178,1,41075,-0,1732204,0,1085192,1,05745E-05,1,41075,-0,9627832,1,41075,0,2296178,1,41075,-0,1208515
0,1090385,1,326009E-05,1,4175,-0,8943007,1,4175,0,2578164,1,4175,-0,1853056,0,1090385,1,02388E-05,1,4175,-0,9909819,1,4175,0,2376745,1,4175,-0,1450217
0,1095577,1,15816E-05,1,42425,-0,8902723,1,42425,0,2618448,1,42425,-0,2175326,0,1095577,1,02388E-05,1,42425,-1,011124,1,42425,0,2497597,1,42425,-0,1450217
0,1100769,1,02388E-05,1,431,-0,8781872,1,431,0,2417029,1,431,-0,2497597,0,1100769,1,05745E-05,1,431,-1,023209,1,431,0,2497597,1,431,-0,1450217
0,1105962,1,225299E-05,1,43775,-0,866102,1,43775,0,2175326,1,43775,-0,2658732,0,1105962,9,735257E-06,1,43775,-1,031266,1,43775,0,2537881,1,43775,-0,1248798
0,1111154,1,326009E-05,1,4445,-0,8540169,1,4445,0,1893339,1,4445,-0,2537881,0,1111154,9,063859E-06,1,4445,-1,019181,1,4445,0,2497597,1,4445,-0,1007095
0,1116346,1,225299E-05,1,45125,-0,8419318,1,45125,0,1611353,1,45125,-0,2417029,0,1116346,1,15816E-05,1,45125,-1,007095,1,45125,0,2336462,1,45125,-0,08056764
0,1121539,1,242084E-05,1,458,-0,8298466,1,458,0,1409934,1,458,-0,2457313,0,1121539,1,107805E-05,1,458,-0,9909819,1,458,0,2135042,1,458,-0,08056764
0,1126731,1,02388E-05,1,46475,-0,8177615,1,46475,0,1248798,1,46475,-0,2497597,0,1126731,1,15816E-05,1,46475,-0,9829252,1,46475,0,1812772,1,46475,-0,09668116
0,1131923,7,049668E-06,1,4715,-0,8137331,1,4715,0,1087663,1,4715,-0,2578164,0,1131923,1,05745E-05,1,4715,-0,97084,1,4715,0,1530785,1,4715,-0,1208515
0,1137115,8,224613E-06,1,47825,-0,8137331,1,47825,0,1168231,1,47825,-0,2618448,0,1137115,9,903106E-06,1,47825,-0,9547265,1,47825,0,1409934,1,47825,-0,1490501
0,1142308,9,399557E-06,1,485,-0,8258182,1,485,0,1248798,1,485,-0,2578164,0,1142308,1,107805E-05,1,485,-0,9426414,1,485,0,1289082,1,485,-0,1732204
0,11475,1,05745E-05,1,49175,-0,833875,1,49175,0,1329366,1,49175,-0,2578164,0,11475,1,258869E-05,1,49175,-0,9265279,1,49175,0,1248798,1,49175,-0,1772488
0,1152692,1,09102E-05,1,4985,-0,833875,1,4985,0,1329366,1,4985,-0,2578164,0,1152692,1,326009E-05,1,4985,-0,9184711,1,4985,0,1168231,1,4985,-0,1853056
0,1157885,8,728161E-06,1,50525,-0,8379034,1,50525,0,1409934,1,50525,-0,2457313,0,1157885,1,258869E-05,1,50525,-0,9184711,1,50525,0,1329366,1,50525,-0,1853056
0,1163077,8,560311E-06,1,512,-0,8419318,1,512,0,136965,1,512,-0,2417029,0,1163077,1,19173E-05,1,512,-0,9224994,1,512,0,136965,1,512,-0,1812772
0,1168269,1,007095E-05,1,51875,-0,8419318,1,51875,0,1329366,1,51875,-0,2457313,0,1168269,1,15816E-05,1,51875,-0,9305562,1,51875,0,1611353,1,51875,-0,1772488
0,1173462,9,567407E-06,1,5255,-0,8499885,1,5255,0,1329366,1,5255,-0,2537881,0,1173462,9,231708E-06,1,5255,-0,9466697,1,5255,0,169192,1,5255,-0,1772488
0,1178654,9,231708E-06,1,53225,-0,8620737,1,53225,0,136965,1,53225,-0,2578164,0,1178654,7,553216E-06,1,53225,-0,9668117,1,53225,0,1853056,1,53225,-0,1812772
0,1183846,8,728161E-06,1,539,-0,8741588,1,539,0,1450217,1,539,-0,2618448,0,1183846,7,888914E-06,1,539,-0,9869535,1,539,0,2094758,1,539,-0,1812772
0,1189038,7,888914E-06,1,54575,-0,8781872,1,54575,0,1530785,1,54575,-0,27393,0,1189038,9,399557E-06,1,54575,-1,003067,1,54575,0,2376745,1,54575,-0,1853056
0,1194231,8,560311E-06,1,5525,-0,8822156,1,5525,0,1530785,1,5525,-0,2900435,0,1194231,9,567407E-06,1,5525,-1,011124,1,5525,0,2618448,1,5525,-0,1933623
0,1199423,1,007095E-05,1,55925,-0,8822156,1,55925,0,1611353,1,55925,-0,2981002,0,1199423,8,224613E-06,1,55925,-1,015152,1,55925,0,2699016,1,55925,-0,1933623
0,1204615,1,05745E-05,1,566,-0,8701304,1,566,0,1651637,1,566,-0,3021286,0,1204615,6,54612E-06,1,566,-1,011124,1,566,0,2860151,1,566,-0,1933623
0,1209808,1,12459E-05,1,57275,-0,8540169,1,57275,0,169192,1,57275,-0,3021286,0,1209808,4,196231E-06,1,57275,-0,9909819,1,57275,0,2900435,1,57275,-0,2014191
0,1215,1,02388E-05,1,5795,-0,8419318,1,5795,0,1732204,1,5795,-0,2981002,0,1215,3,860533E-06,1,5795,-0,9748684,1,5795,0,2779583,1,5795,-0,2014191
0,1220192,9,903106E-06,1,58625,-0,8379034,1,58625,0,1812772,1,58625,-0,2860151,0,1220192,5,203327E-06,1,58625,-0,9547265,1,58625,0,2658732,1,58625,-0,2175326
0,1225385,1,15816E-05,1,593,-0,8298466,1,593,0,1893339,1,593,-0,2819867,0,1225385,7,049668E-06,1,593,-0,9305562,1,593,0,2537881,1,593,-0,2175326
0,1230577,1,02388E-05,1,59975,-0,8217899,1,59975,0,1973907,1,59975,-0,2819867,0,1230577,9,063859E-06,1,59975,-0,9144427,1,59975,0,2376745,1,59975,-0,2255894
0,1235769,8,392462E-06,1,6065,-0,8217899,1,6065,0,1893339,1,6065,-0,2860151,0,1235769,8,89601E-06,1,6065,-0,9063858,1,6065,0,2255894,1,6065,-0,2376745
0,1240962,9,567407E-06,1,61325,-0,8217899,1,61325,0,1853056,1,61325,-0,3101854,0,1240962,7,888914E-06,1,61325,-0,8902723,1,61325,0,221561,1,61325,-0,2376745
0,1246154,1,040665E-05,1,62,-0,8379034,1,62,0,1732204,1,62,-0,3343557,0,1246154,9,063859E-06,1,62,-0,8983291,1,62,0,2094758,1,62,-0,2497597
0,1251346,8,89601E-06,1,62675,-0,8419318,1,62675,0,1772488,1,62675,-0,3424124,0,1251346,8,89601E-06,1,62675,-0,9104142,1,62675,0,2054475,1,62675,-0,2376745
0,1256538,6,881819E-06,1,6335,-0,8580453,1,6335,0,169192,1,6335,-0,3464408,0,1256538,7,217517E-06,1,6335,-0,9265279,1,6335,0,1973907,1,6335,-0,2376745
0,1261731,4,531929E-06,1,64025,-0,8620737,1,64025,0,169192,1,64025,-0,3343557,0,1261731,6,71397E-06,1,64025,-0,9426414,1,64025,0,1893339,1,64025,-0,221561
0,1266923,4,867628E-06,1,647,-0,8701304,1,647,0,1732204,1,647,-0,3262989,0,1266923,7,888914E-06,1,647,-0,9788967,1,647,0,1812772,1,647,-0,2175326
0,1272115,7,721065E-06,1,65375,-0,8620737,1,65375,0,1732204,1,65375,-0,3182422,0,1272115,7,049668E-06,1,65375,-0,9909819,1,65375,0,1772488,1,65375,-0,2135042
0,1277308,1,007095E-05,1,6605,-0,8620737,1,6605,0,1732204,1,6605,-0,3222705,0,1277308,3,860533E-06,1,6605,-1,003067,1,6605,0,1611353,1,6605,-0,221561
0,12825,1,107805E-05,1,66725,-0,8580453,1,66725,0,1732204,1,66725,-0,3343557,0,12825,3,860533E-06,1,66725,-1,003067,1,66725,0,1450217,1,66725,-0,2296178
0,1287692,1,19173E-05,1,674,-0,8499885,1,674,0,1732204,1,674,-0,3464408,0,1287692,5,203327E-06,1,674,-0,9990387,1,674,0,1409934,1,674,-0,2336462
0,1292885,1,141375E-05,1,68075,-0,8499885,1,68075,0,1732204,1,68075,-0,3544976,0,1292885,6,54612E-06,1,68075,-0,9869535,1,68075,0,136965,1,68075,-0,2417029
0,1298077,9,903106E-06,1,6875,-0,8540169,1,6875,0,1772488,1,6875,-0,3625543,0,1298077,5,539025E-06,1,6875,-0,9829252,1,6875,0,1208515,1,6875,-0,2376745
0,1303269,1,040665E-05,1,69425,-0,8580453,1,69425,0,1732204,1,69425,-0,3625543,0,1303269,3,860533E-06,1,69425,-0,9748684,1,69425,0,1168231,1,69425,-0,2296178
0,1308462,1,141375E-05,1,701,-0,8701304,1,701,0,1611353,1,701,-0,3665827,0,1308462,3,860533E-06,1,701,-0,97084,1,701,0,1087663,1,701,-0,2296178
0,1313654,1,19173E-05,1,70775,-0,8741588,1,70775,0,1530785,1,70775,-0,358526,0,1313654,4,196231E-06,1,70775,-0,97084,1,70775,0,1047379,1,70775,-0,2255894
0,1318846,1,15816E-05,1,7145,-0,8822156,1,7145,0,1450217,1,7145,-0,3625543,0,1318846,2,517739E-06,1,7145,-0,9788967,1,7145,0,1047379,1,7145,-0,2417029
0,1324039,1,02388E-05,1,72125,-0,8943007,1,72125,0,1329366,1,72125,-0,358526,0,1324039,2,349889E-06,1,72125,-0,9829252,1,72125,0,1087663,1,72125,-0,2537881
0,1329231,1,258869E-05,1,728,-0,8983291,1,728,0,1329366,1,728,-0,3625543,0,1329231,3,189135E-06,1,728,-1,003067,1,728,0,1047379,1,728,-0,2578164
0,1334423,1,695277E-05,1,73475,-0,8983291,1,73475,0,1450217,1,73475,-0,3625543,0,1334423,4,699778E-06,1,73475,-1,007095,1,73475,0,1047379,1,73475,-0,2699016
0,1339615,1,695277E-05,1,7415,-0,8862439,1,7415,0,1490501,1,7415,-0,3706111,0,1339615,4,196231E-06,1,7415,-1,015152,1,7415,0,1127947,1,7415,-0,2699016
0,1344808,1,493858E-05,1,74825,-0,866102,1,74825,0,1571069,1,74825,-0,3746395,0,1344808,1,007096E-06,1,74825,-1,015152,1,74825,0,1127947,1,74825,-0,2618448
0,135,1,393149E-05,1,755,-0,8540169,1,755,0,1611353,1,755,-0,3746395,0,135,-5,035478E-07,1,755,-1,003067,1,755,0,1248798,1,755,-0,2658732
0,1355192,1,376364E-05,1,76175,-0,8419318,1,76175,0,169192,1,76175,-0,3867247,0,1355192,1,678492E-07,1,76175,-1,003067,1,76175,0,136965,1,76175,-0,2618448
0,1360385,1,460288E-05,1,7685,-0,8499885,1,7685,0,1732204,1,7685,-0,390753,0,1360385,2,349889E-06,1,7685,-0,9990387,1,7685,0,136965,1,7685,-0,27393
0,1365577,1,393149E-05,1,77525,-0,8580453,1,77525,0,1651637,1,77525,-0,390753,0,1365577,2,853437E-06,1,77525,-0,9990387,1,77525,0,1490501,1,77525,-0,2819867
0,1370769,1,174945E-05,1,782,-0,8701304,1,782,0,1651637,1,782,-0,3988098,0,1370769,3,524834E-06,1,782,-1,007095,1,782,0,1611353,1,782,-0,2819867
0,1375962,1,12459E-05,1,78875,-0,8781872,1,78875,0,1611353,1,78875,-0,3947814,0,1375962,3,524834E-06,1,78875,-1,003067,1,78875,0,1651637,1,78875,-0,2860151
0,1381154,1,393149E-05,1,7955,-0,8902723,1,7955,0,1571069,1,7955,-0,390753,0,1381154,4,36408E-06,1,7955,-0,9990387,1,7955,0,1772488,1,7955,-0,2900435
0,1386346,1,560998E-05,1,80225,-0,8822156,1,80225,0,1530785,1,80225,-0,3867247,0,1386346,6,210422E-06,1,80225,-0,9950103,1,80225,0,1853056,1,80225,-0,2940719
0,1391539,1,409934E-05,1,809,-0,8781872,1,809,0,1571069,1,809,-0,3665827,0,1391539,7,721065E-06,1,809,-0,9869535,1,809,0,1732204,1,809,-0,2981002
0,1396731,1,05745E-05,1,81575,-0,8701304,1,81575,0,1651637,1,81575,-0,3706111,0,1396731,6,881819E-06,1,81575,-0,9869535,1,81575,0,1732204,1,81575,-0,2940719
0,1401923,9,903106E-06,1,8225,-0,8620737,1,8225,0,1651637,1,8225,-0,3826963,0,1401923,8,224613E-06,1,8225,-0,9829252,1,8225,0,1651637,1,8225,-0,2981002
0,1407115,1,208515E-05,1,82925,-0,8499885,1,82925,0,1611353,1,82925,-0,4028382,0,1407115,8,392462E-06,1,82925,-0,9829252,1,82925,0,169192,1,82925,-0,2981002
0,1412308,1,258869E-05,1,836,-0,8499885,1,836,0,1571069,1,836,-0,4108949,0,1412308,6,042573E-06,1,836,-0,9909819,1,836,0,169192,1,836,-0,306157
0,14175,1,19173E-05,1,84275,-0,8419318,1,84275,0,1530785,1,84275,-0,4108949,0,14175,4,196231E-06,1,84275,-0,9950103,1,84275,0,169192,1,84275,-0,3021286
0,1422692,1,12459E-05,1,8495,-0,8379034,1,8495,0,1490501,1,8495,-0,4108949,0,1422692,4,36408E-06,1,8495,-0,9869535,1,8495,0,1651637,1,8495,-0,3021286
0,1427885,1,05745E-05,1,85625,-0,8379034,1,85625,0,1409934,1,85625,-0,4149233,0,1427885,6,881819E-06,1,85625,-0,9788967,1,85625,0,1651637,1,85625,-0,3142138
0,1433077,1,15816E-05,1,863,-0,833875,1,863,0,136965,1,863,-0,4189517,0,1433077,9,567407E-06,1,863,-0,97084,1,863,0,1611353,1,863,-0,3182422
0,1438269,1,258869E-05,1,86975,-0,833875,1,86975,0,1409934,1,86975,-0,4189517,0,1438269,9,063859E-06,1,86975,-0,9627832,1,86975,0,1530785,1,86975,-0,3182422
0,1443462,1,258869E-05,1,8765,-0,8379034,1,8765,0,1409934,1,8765,-0,4108949,0,1443462,7,049668E-06,1,8765,-0,9627832,1,8765,0,1490501,1,8765,-0,3262989
0,1448654,1,393149E-05,1,88325,-0,8499885,1,88325,0,1409934,1,88325,-0,4149233,0,1448654,7,888914E-06,1,88325,-0,9668117,1,88325,0,1450217,1,88325,-0,3303273
0,1453846,1,393149E-05,1,89,-0,8540169,1,89,0,1409934,1,89,-0,4149233,0,1453846,1,02388E-05,1,89,-0,9627832,1,89,0,1409934,1,89,-0,3262989
0,1459038,1,107805E-05,1,89675,-0,8459601,1,89675,0,136965,1,89675,-0,4028382,0,1459038,1,09102E-05,1,89675,-0,97084,1,89675,0,1329366,1,89675,-0,3222705
0,1464231,9,735257E-06,1,9035,-0,8499885,1,9035,0,1289082,1,9035,-0,4068666,0,1464231,9,903106E-06,1,9035,-0,97084,1,9035,0,1329366,1,9035,-0,3222705
0,1469423,1,05745E-05,1,91025,-0,8459601,1,91025,0,1208515,1,91025,-0,4028382,0,1469423,9,063859E-06,1,91025,-0,9788967,1,91025,0,1329366,1,91025,-0,3182422
0,1474615,8,89601E-06,1,917,-0,8499885,1,917,0,1168231,1,917,-0,4068666,0,1474615,9,399557E-06,1,917,-0,9869535,1,917,0,1329366,1,917,-0,3182422
0,1479808,6,54612E-06,1,92375,-0,8540169,1,92375,0,1329366,1,92375,-0,4068666,0,1479808,7,553216E-06,1,92375,-0,9909819,1,92375,0,1409934,1,92375,-0,3142138
0,1485,8,392462E-06,1,9305,-0,8620737,1,9305,0,1490501,1,9305,-0,4149233,0,1485,6,54612E-06,1,9305,-1,007095,1,9305,0,136965,1,9305,-0,3182422
0,1490192,1,12459E-05,1,93725,-0,8620737,1,93725,0,1490501,1,93725,-0,4270085,0,1490192,7,217517E-06,1,93725,-1,015152,1,93725,0,1409934,1,93725,-0,3222705
0,1495385,1,309224E-05,1,944,-0,866102,1,944,0,1490501,1,944,-0,443122,0,1495385,6,210422E-06,1,944,-1,019181,1,944,0,1530785,1,944,-0,3343557
0,1500577,1,05745E-05,1,95075,-0,8701304,1,95075,0,1409934,1,95075,-0,4471503,0,1500577,7,553216E-06,1,95075,-1,019181,1,95075,0,1611353,1,95075,-0,3343557
0,1505769,9,903106E-06,1,9575,-0,8741588,1,9575,0,136965,1,9575,-0,4552071,0,1505769,9,231708E-06,1,9575,-1,015152,1,9575,0,1651637,1,9575,-0,3424124
0,1510962,9,903106E-06,1,96425,-0,8741588,1,96425,0,136965,1,96425,-0,4511787,0,1510962,7,721065E-06,1,96425,-1,003067,1,96425,0,1651637,1,96425,-0,3383841
0,1516154,1,040665E-05,1,971,-0,866102,1,971,0,136965,1,971,-0,4471503,0,1516154,9,063859E-06,1,971,-0,9829252,1,971,0,1571069,1,971,-0,3303273
0,1521346,9,903106E-06,1,97775,-0,8580453,1,97775,0,1450217,1,97775,-0,4350652,0,1521346,1,15816E-05,1,97775,-0,9748684,1,97775,0,1409934,1,97775,-0,3303273
0,1526538,9,231708E-06,1,9845,-0,8419318,1,9845,0,1490501,1,9845,-0,4229801,0,1526538,1,19173E-05,1,9845,-0,9587549,1,9845,0,1289082,1,9845,-0,3222705
0,1531731,9,567407E-06,1,99125,-0,8419318,1,99125,0,1571069,1,99125,-0,4028382,0,1531731,1,258869E-05,1,99125,-0,9587549,1,99125,0,1208515,1,99125,-0,3182422
0,1536923,9,231708E-06,1,998,-0,8379034,1,998,0,1732204,1,998,-0,3947814,0,1536923,1,275654E-05,1,998,-0,9668117,1,998,0,1047379,1,998,-0,3182422
0,1542115,9,231708E-06,2,00475,-0,833875,2,00475,0,1933623,2,00475,-0,4028382,0,1542115,9,903106E-06,2,00475,-0,9668117,2,00475,0,1087663,2,00475,-0,3142138
0,1547308,9,063859E-06,2,0115,-0,8379034,2,0115,0,2014191,2,0115,-0,4108949,0,1547308,7,721065E-06,2,0115,-0,97084,2,0115,0,1047379,2,0115,-0,3142138
0,15525,7,553216E-06,2,01825,-0,8459601,2,01825,0,1973907,2,01825,-0,4229801,0,15525,7,049668E-06,2,01825,-0,9748684,2,01825,0,1087663,2,01825,-0,3101854
0,1557692,7,721065E-06,2,025,-0,8540169,2,025,0,1732204,2,025,-0,4310368,0,1557692,7,888914E-06,2,025,-0,9829252,2,025,0,1208515,2,025,-0,3182422
0,1562885,8,224613E-06,2,03175,-0,8620737,2,03175,0,1450217,2,03175,-0,4350652,0,1562885,8,560311E-06,2,03175,-0,9950103,2,03175,0,136965,2,03175,-0,3142138
0,1568077,9,567407E-06,2,0385,-0,866102,2,0385,0,1168231,2,0385,-0,4350652,0,1568077,9,903106E-06,2,0385,-0,9950103,2,0385,0,1450217,2,0385,-0,306157
0,1573269,1,15816E-05,2,04525,-0,8701304,2,04525,0,09265278,2,04525,-0,4270085,0,1573269,1,02388E-05,2,04525,-0,9950103,2,04525,0,1490501,2,04525,-0,2940719
0,1578462,1,292439E-05,2,052,-0,8741588,2,052,0,08459602,2,052,-0,4229801,0,1578462,9,063859E-06,2,052,-0,9909819,2,052,0,1490501,2,052,-0,2860151
0,1583654,1,326009E-05,2,05875,-0,8580453,2,05875,0,0886244,2,05875,-0,4270085,0,1583654,7,888914E-06,2,05875,-0,9829252,2,05875,0,1490501,2,05875,-0,2940719
0,1588846,1,05745E-05,2,0655,-0,8620737,2,0655,0,1007095,2,0655,-0,4270085,0,1588846,7,385367E-06,2,0655,-0,97084,2,0655,0,1409934,2,0655,-0,306157
0,1594038,8,89601E-06,2,07225,-0,866102,2,07225,0,1248798,2,07225,-0,4189517,0,1594038,1,05745E-05,2,07225,-0,9668117,2,07225,0,1329366,2,07225,-0,3142138
0,1599231,1,05745E-05,2,079,-0,866102,2,079,0,136965,2,079,-0,4108949,0,1599231,1,326009E-05,2,079,-0,9668117,2,079,0,1208515,2,079,-0,3222705
0,1604423,1,19173E-05,2,08575,-0,8580453,2,08575,0,1611353,2,08575,-0,4189517,0,1604423,1,292439E-05,2,08575,-0,97084,2,08575,0,1289082,2,08575,-0,3222705
0,1609615,1,05745E-05,2,0925,-0,8540169,2,0925,0,1732204,2,0925,-0,4189517,0,1609615,1,258869E-05,2,0925,-0,9668117,2,0925,0,1289082,2,0925,-0,3182422
0,1614808,9,903106E-06,2,09925,-0,8540169,2,09925,0,1772488,2,09925,-0,4149233,0,1614808,1,05745E-05,2,09925,-0,97084,2,09925,0,1329366,2,09925,-0,3142138
0,162,1,05745E-05,2,106,-0,8499885,2,106,0,1853056,2,106,-0,4068666,0,162,9,231708E-06,2,106,-0,9748684,2,106,0,136965,2,106,-0,3101854
0,1625192,1,12459E-05,2,11275,-0,8459601,2,11275,0,1893339,2,11275,-0,4068666,0,1625192,1,107805E-05,2,11275,-0,9829252,2,11275,0,1409934,2,11275,-0,2981002
0,1630385,1,292439E-05,2,1195,-0,8459601,2,1195,0,1772488,2,1195,-0,4108949,0,1630385,1,426719E-05,2,1195,-0,97084,2,1195,0,1530785,2,1195,-0,2981002
0,1635577,1,258869E-05,2,12625,-0,8540169,2,12625,0,1530785,2,12625,-0,4149233,0,1635577,1,628138E-05,2,12625,-0,9627832,2,12625,0,1571069,2,12625,-0,3021286
0,1640769,1,12459E-05,2,133,-0,8540169,2,133,0,1329366,2,133,-0,4068666,0,1640769,1,812772E-05,2,133,-0,9587549,2,133,0,1530785,2,133,-0,2900435
0,1645962,1,15816E-05,2,13975,-0,8620737,2,13975,0,1208515,2,13975,-0,4068666,0,1645962,1,712062E-05,2,13975,-0,9547265,2,13975,0,1530785,2,13975,-0,2699016
0,1651154,1,242084E-05,2,1465,-0,8620737,2,1465,0,1168231,2,1465,-0,3947814,0,1651154,1,359579E-05,2,1465,-0,97084,2,1465,0,1450217,2,1465,-0,2860151
0,1656346,1,426719E-05,2,15325,-0,8741588,2,15325,0,1289082,2,15325,-0,3947814,0,1656346,1,05745E-05,2,15325,-0,9829252,2,15325,0,1409934,2,15325,-0,2860151
0,1661538,1,493858E-05,2,16,-0,8781872,2,16,0,1490501,2,16,-0,3988098,0,1661538,8,560311E-06,2,16,-0,9909819,2,16,0,1450217,2,16,-0,2981002
0,1666731,1,326009E-05,2,16675,-0,8741588,2,16675,0,1651637,2,16675,-0,4028382,0,1666731,1,19173E-05,2,16675,-0,9950103,2,16675,0,1450217,2,16675,-0,3101854
0,1671923,1,141375E-05,2,1735,-0,8620737,2,1735,0,1651637,2,1735,-0,4108949,0,1671923,1,628138E-05,2,1735,-0,9950103,2,1735,0,1409934,2,1735,-0,3182422
0,1677115,1,19173E-05,2,18025,-0,8540169,2,18025,0,1651637,2,18025,-0,4189517,0,1677115,1,443503E-05,2,18025,-0,9950103,2,18025,0,1530785,2,18025,-0,3182422
0,1682308,1,326009E-05,2,187,-0,8419318,2,187,0,1611353,2,187,-0,4229801,0,1682308,1,15816E-05,2,187,-0,9869535,2,187,0,1450217,2,187,-0,3222705
0,16875,1,393149E-05,2,19375,-0,833875,2,19375,0,1530785,2,19375,-0,4350652,0,16875,9,735257E-06,2,19375,-0,9788967,2,19375,0,136965,2,19375,-0,3142138
0,1692692,1,242084E-05,2,2005,-0,8298466,2,2005,0,1530785,2,2005,-0,4350652,0,1692692,9,231708E-06,2,2005,-0,97084,2,2005,0,1329366,2,2005,-0,3142138
0,1697885,9,567407E-06,2,20725,-0,833875,2,20725,0,1611353,2,20725,-0,4350652,0,1697885,9,231708E-06,2,20725,-0,9668117,2,20725,0,1208515,2,20725,-0,3142138
0,1703077,9,063859E-06,2,214,-0,8379034,2,214,0,1651637,2,214,-0,4270085,0,1703077,9,567407E-06,2,214,-0,9587549,2,214,0,1168231,2,214,-0,306157
0,1708269,1,12459E-05,2,22075,-0,8419318,2,22075,0,1732204,2,22075,-0,4149233,0,1708269,8,89601E-06,2,22075,-0,9627832,2,22075,0,1087663,2,22075,-0,3021286
0,1713462,1,19173E-05,2,2275,-0,8499885,2,2275,0,1571069,2,2275,-0,4068666,0,1713462,1,05745E-05,2,2275,-0,9748684,2,2275,0,1047379,2,2275,-0,3021286
0,1718654,1,15816E-05,2,23425,-0,8580453,2,23425,0,1450217,2,23425,-0,4068666,0,1718654,1,007095E-05,2,23425,-0,9950103,2,23425,0,1087663,2,23425,-0,2940719
0,1723846,1,09102E-05,2,241,-0,866102,2,241,0,1450217,2,241,-0,4028382,0,1723846,7,217517E-06,2,241,-0,9909819,2,241,0,1127947,2,241,-0,3142138
0,1729039,9,735257E-06,2,24775,-0,8620737,2,24775,0,1490501,2,24775,-0,4229801,0,1729039,6,71397E-06,2,24775,-0,9909819,2,24775,0,1208515,2,24775,-0,3142138
0,1734231,8,89601E-06,2,2545,-0,8580453,2,2545,0,136965,2,2545,-0,4270085,0,1734231,8,056764E-06,2,2545,-0,9950103,2,2545,0,1248798,2,2545,-0,3101854
0,1739423,9,903106E-06,2,26125,-0,8540169,2,26125,0,1248798,2,26125,-0,4310368,0,1739423,9,063859E-06,2,26125,-1,007095,2,26125,0,1248798,2,26125,-0,3142138
0,1744615,1,05745E-05,2,268,-0,8580453,2,268,0,1248798,2,268,-0,4310368,0,1744615,9,231708E-06,2,268,-1,007095,2,268,0,1289082,2,268,-0,3182422
0,1749808,9,567407E-06,2,27475,-0,8499885,2,27475,0,1409934,2,27475,-0,4189517,0,1749808,9,567407E-06,2,27475,-1,003067,2,27475,0,1329366,2,27475,-0,3182422
0,1755,9,231708E-06,2,2815,-0,8459601,2,2815,0,1571069,2,2815,-0,4028382,0,1755,8,224613E-06,2,2815,-0,9950103,2,2815,0,1329366,2,2815,-0,3142138
0,1760192,9,903106E-06,2,28825,-0,833875,2,28825,0,1611353,2,28825,-0,4068666,0,1760192,9,231708E-06,2,28825,-0,9869535,2,28825,0,1409934,2,28825,-0,3182422
0,1765385,9,903106E-06,2,295,-0,8298466,2,295,0,1571069,2,295,-0,4108949,0,1765385,9,063859E-06,2,295,-0,9829252,2,295,0,1409934,2,295,-0,3182422
0,1770577,9,231708E-06,2,30175,-0,8258182,2,30175,0,1450217,2,30175,-0,4149233,0,1770577,6,71397E-06,2,30175,-0,97084,2,30175,0,1409934,2,30175,-0,3182422
0,1775769,9,231708E-06,2,3085,-0,8258182,2,3085,0,1289082,2,3085,-0,4229801,0,1775769,5,203327E-06,2,3085,-0,9627832,2,3085,0,1490501,2,3085,-0,3182422
0,1780962,1,007095E-05,2,31525,-0,8298466,2,31525,0,1248798,2,31525,-0,4310368,0,1780962,3,860533E-06,2,31525,-0,9547265,2,31525,0,1450217,2,31525,-0,3182422
0,1786154,1,12459E-05,2,322,-0,8258182,2,322,0,1248798,2,322,-0,4552071,0,1786154,3,356985E-06,2,322,-0,9506981,2,322,0,136965,2,322,-0,3262989
0,1791346,1,040665E-05,2,32875,-0,833875,2,32875,0,1208515,2,32875,-0,4511787,0,1791346,1,342794E-06,2,32875,-0,9547265,2,32875,0,1329366,2,32875,-0,3303273
0,1796539,9,399557E-06,2,3355,-0,833875,2,3355,0,1208515,2,3355,-0,4511787,0,1796539,-1,678492E-07,2,3355,-0,9668117,2,3355,0,1208515,2,3355,-0,3383841
0,1801731,9,567407E-06,2,34225,-0,8298466,2,34225,0,1248798,2,34225,-0,4471503,0,1801731,2,18204E-06,2,34225,-0,9788967,2,34225,0,1127947,2,34225,-0,3383841
0,1806923,9,735257E-06,2,349,-0,8298466,2,349,0,1208515,2,349,-0,4390936,0,1806923,5,874724E-06,2,349,-0,9950103,2,349,0,1007095,2,349,-0,3383841
0,1812115,1,174945E-05,2,35575,-0,8379034,2,35575,0,1409934,2,35575,-0,4511787,0,1812115,6,378271E-06,2,35575,-1,003067,2,35575,0,1047379,2,35575,-0,3464408
0,1817308,1,309224E-05,2,3625,-0,8580453,2,3625,0,1409934,2,3625,-0,4390936,0,1817308,3,860533E-06,2,3625,-1,011124,2,3625,0,1127947,2,3625,-0,3504692
0,18225,1,258869E-05,2,36925,-0,8701304,2,36925,0,1571069,2,36925,-0,443122,0,18225,1,510643E-06,2,36925,-1,007095,2,36925,0,1168231,2,36925,-0,3544976
0,1827692,1,225299E-05,2,376,-0,8781872,2,376,0,1530785,2,376,-0,443122,0,1827692,3,692683E-06,2,376,-1,007095,2,376,0,1329366,2,376,-0,3544976
0,1832885,1,393149E-05,2,38275,-0,8701304,2,38275,0,1490501,2,38275,-0,4350652,0,1832885,6,210422E-06,2,38275,-0,9869535,2,38275,0,1409934,2,38275,-0,3464408
0,1838077,1,443503E-05,2,3895,-0,8580453,2,3895,0,1409934,2,3895,-0,4310368,0,1838077,6,210422E-06,2,3895,-0,9748684,2,3895,0,1409934,2,3895,-0,3383841
0,1843269,1,393149E-05,2,39625,-0,8459601,2,39625,0,1248798,2,39625,-0,4270085,0,1843269,3,692683E-06,2,39625,-0,9587549,2,39625,0,1409934,2,39625,-0,3343557
0,1848462,1,460288E-05,2,403,-0,8298466,2,403,0,1208515,2,403,-0,4390936,0,1848462,1,510643E-06,2,403,-0,9466697,2,403,0,1329366,2,403,-0,3222705
0,1853654,1,577783E-05,2,40975,-0,8217899,2,40975,0,1248798,2,40975,-0,4390936,0,1853654,1,678492E-06,2,40975,-0,9466697,2,40975,0,1329366,2,40975,-0,3262989
0,1858846,1,527428E-05,2,4165,-0,8258182,2,4165,0,1329366,2,4165,-0,443122,0,1858846,2,517739E-06,2,4165,-0,9627832,2,4165,0,1208515,2,4165,-0,3182422
0,1864039,1,275654E-05,2,42325,-0,833875,2,42325,0,1530785,2,42325,-0,4310368,0,1864039,3,189135E-06,2,42325,-0,9748684,2,42325,0,1168231,2,42325,-0,3262989
0,1869231,1,258869E-05,2,43,-0,8459601,2,43,0,1772488,2,43,-0,4270085,0,1869231,5,203327E-06,2,43,-0,9950103,2,43,0,1168231,2,43,-0,3262989
0,1874423,1,326009E-05,2,43675,-0,8540169,2,43675,0,1893339,2,43675,-0,4229801,0,1874423,6,881819E-06,2,43675,-1,015152,2,43675,0,1127947,2,43675,-0,3303273
0,1879615,1,409934E-05,2,4435,-0,8580453,2,4435,0,1853056,2,4435,-0,4310368,0,1879615,7,049668E-06,2,4435,-1,019181,2,4435,0,1248798,2,4435,-0,3343557
0,1884808,1,493858E-05,2,45025,-0,8540169,2,45025,0,1772488,2,45025,-0,4350652,0,1884808,5,203327E-06,2,45025,-1,019181,2,45025,0,136965,2,45025,-0,3343557
0,189,1,460288E-05,2,457,-0,8459601,2,457,0,1571069,2,457,-0,4390936,0,189,5,035477E-06,2,457,-1,015152,2,457,0,1490501,2,457,-0,3464408
0,1895192,1,359579E-05,2,46375,-0,8298466,2,46375,0,1450217,2,46375,-0,4390936,0,1895192,9,231708E-06,2,46375,-0,9950103,2,46375,0,1450217,2,46375,-0,3383841
0,1900385,1,326009E-05,2,4705,-0,8177615,2,4705,0,1329366,2,4705,-0,4390936,0,1900385,1,05745E-05,2,4705,-0,9668117,2,4705,0,136965,2,4705,-0,3383841
0,1905577,1,19173E-05,2,47725,-0,8056763,2,47725,0,1329366,2,47725,-0,4350652,0,1905577,8,224613E-06,2,47725,-0,9466697,2,47725,0,1289082,2,47725,-0,3303273
0,1910769,9,903106E-06,2,484,-0,8056763,2,484,0,1329366,2,484,-0,4552071,0,1910769,7,217517E-06,2,484,-0,9305562,2,484,0,1168231,2,484,-0,3383841
0,1915962,9,231708E-06,2,49075,-0,8097047,2,49075,0,1248798,2,49075,-0,4592355,0,1915962,7,553216E-06,2,49075,-0,9224994,2,49075,0,1087663,2,49075,-0,3383841
0,1921154,8,560311E-06,2,4975,-0,8258182,2,4975,0,1208515,2,4975,-0,4632639,0,1921154,8,89601E-06,2,4975,-0,9386129,2,4975,0,09265278,2,4975,-0,3504692
0,1926346,8,392462E-06,2,50425,-0,8459601,2,50425,0,136965,2,50425,-0,4713207,0,1926346,9,735257E-06,2,50425,-0,9587549,2,50425,0,1087663,2,50425,-0,3464408
0,1931538,1,02388E-05,2,511,-0,8580453,2,511,0,1450217,2,511,-0,4672923,0,1931538,1,12459E-05,2,511,-0,9909819,2,511,0,1168231,2,511,-0,3504692
0,1936731,1,242084E-05,2,51775,-0,8741588,2,51775,0,1490501,2,51775,-0,4471503,0,1936731,1,560998E-05,2,51775,-1,007095,2,51775,0,136965,2,51775,-0,3464408
0,1941923,1,174945E-05,2,5245,-0,8741588,2,5245,0,1530785,2,5245,-0,4350652,0,1941923,1,661708E-05,2,5245,-1,023209,2,5245,0,1409934,2,5245,-0,3424124
0,1947115,1,09102E-05,2,53125,-0,8701304,2,53125,0,1651637,2,53125,-0,4270085,0,1947115,1,393149E-05,2,53125,-1,027237,2,53125,0,1490501,2,53125,-0,3303273
0,1952308,1,19173E-05,2,538,-0,8620737,2,538,0,1651637,2,538,-0,4108949,0,1952308,1,225299E-05,2,538,-1,027237,2,538,0,1490501,2,538,-0,3182422
0,19575,1,326009E-05,2,54475,-0,8499885,2,54475,0,1772488,2,54475,-0,390753,0,19575,1,326009E-05,2,54475,-1,007095,2,54475,0,1450217,2,54475,-0,3142138
0,1962692,1,359579E-05,2,5515,-0,8379034,2,5515,0,1812772,2,5515,-0,3867247,0,1962692,1,560998E-05,2,5515,-0,9950103,2,5515,0,136965,2,5515,-0,3101854
0,1967885,1,12459E-05,2,55825,-0,8298466,2,55825,0,1812772,2,55825,-0,4149233,0,1967885,1,460288E-05,2,55825,-0,9748684,2,55825,0,1289082,2,55825,-0,3101854
0,1973077,9,903106E-06,2,565,-0,8298466,2,565,0,169192,2,565,-0,443122,0,1973077,1,292439E-05,2,565,-0,9627832,2,565,0,1248798,2,565,-0,3142138
0,1978269,1,174945E-05,2,57175,-0,8379034,2,57175,0,1611353,2,57175,-0,4632639,0,1978269,1,19173E-05,2,57175,-0,9587549,2,57175,0,1127947,2,57175,-0,3222705
0,1983462,1,527428E-05,2,5785,-0,8499885,2,5785,0,1611353,2,5785,-0,4793774,0,1983462,1,107805E-05,2,5785,-0,9668117,2,5785,0,1127947,2,5785,-0,3262989
0,1988654,1,544213E-05,2,58525,-0,8580453,2,58525,0,1530785,2,58525,-0,4713207,0,1988654,1,02388E-05,2,58525,-0,9788967,2,58525,0,1168231,2,58525,-0,3262989
0,1993846,1,292439E-05,2,592,-0,866102,2,592,0,1571069,2,592,-0,4713207,0,1993846,9,231708E-06,2,592,-0,9909819,2,592,0,1168231,2,592,-0,3343557
0,1999038,1,292439E-05,2,59875,-0,866102,2,59875,0,1530785,2,59875,-0,4632639,0,1999038,7,888914E-06,2,59875,-0,9909819,2,59875,0,1208515,2,59875,-0,3383841
0,2004231,1,393149E-05,2,6055,-0,8540169,2,6055,0,1409934,2,6055,-0,4511787,0,2004231,6,54612E-06,2,6055,-0,9990387,2,6055,0,1289082,2,6055,-0,3424124
0,2009423,1,493858E-05,2,61225,-0,8499885,2,61225,0,1329366,2,61225,-0,4390936,0,2009423,5,874724E-06,2,61225,-0,9909819,2,61225,0,1208515,2,61225,-0,3424124
0,2014615,1,560998E-05,2,619,-0,8459601,2,619,0,1289082,2,619,-0,4270085,0,2014615,5,874724E-06,2,619,-0,9909819,2,619,0,1127947,2,619,-0,3464408
0,2019808,1,560998E-05,2,62575,-0,8459601,2,62575,0,136965,2,62575,-0,4229801,0,2019808,5,706875E-06,2,62575,-0,9869535,2,62575,0,1127947,2,62575,-0,3383841
0,2025,1,527428E-05,2,6325,-0,8459601,2,6325,0,1571069,2,6325,-0,4270085,0,2025,5,203327E-06,2,6325,-0,9829252,2,6325,0,1087663,2,6325,-0,3383841
0,2030192,1,359579E-05,2,63925,-0,8540169,2,63925,0,169192,2,63925,-0,4350652,0,2030192,4,867628E-06,2,63925,-0,9748684,2,63925,0,1087663,2,63925,-0,3343557
0,2035385,1,359579E-05,2,646,-0,8540169,2,646,0,1772488,2,646,-0,4511787,0,2035385,5,035477E-06,2,646,-0,97084,2,646,0,1047379,2,646,-0,3262989
0,2040577,1,258869E-05,2,65275,-0,8580453,2,65275,0,1772488,2,65275,-0,4632639,0,2040577,6,210422E-06,2,65275,-0,97084,2,65275,0,1168231,2,65275,-0,3222705
0,2045769,9,903106E-06,2,6595,-0,8580453,2,6595,0,1772488,2,6595,-0,4672923,0,2045769,6,881819E-06,2,6595,-0,9788967,2,6595,0,1289082,2,6595,-0,3262989
0,2050962,8,89601E-06,2,66625,-0,8701304,2,66625,0,1611353,2,66625,-0,4672923,0,2050962,4,36408E-06,2,66625,-0,9950103,2,66625,0,1329366,2,66625,-0,3262989
0,2056154,1,040665E-05,2,673,-0,8620737,2,673,0,1611353,2,673,-0,4592355,0,2056154,2,349889E-06,2,673,-0,9909819,2,673,0,1289082,2,673,-0,3343557
0,2061346,1,258869E-05,2,67975,-0,8540169,2,67975,0,1611353,2,67975,-0,443122,0,2061346,2,853437E-06,2,67975,-0,9950103,2,67975,0,1329366,2,67975,-0,3303273
0,2066538,1,376364E-05,2,6865,-0,8499885,2,6865,0,1611353,2,6865,-0,4270085,0,2066538,4,699778E-06,2,6865,-0,9990387,2,6865,0,1289082,2,6865,-0,3262989
0,2071731,1,275654E-05,2,69325,-0,8379034,2,69325,0,1571069,2,69325,-0,4068666,0,2071731,7,888914E-06,2,69325,-0,9950103,2,69325,0,1208515,2,69325,-0,3182422
0,2076923,1,05745E-05,2,7,-0,833875,2,7,0,1490501,2,7,-0,4028382,0,2076923,1,007095E-05,2,7,-0,9950103,2,7,0,1087663,2,7,-0,3142138
0,2082115,1,02388E-05,2,70675,-0,833875,2,70675,0,1409934,2,70675,-0,4108949,0,2082115,9,903106E-06,2,70675,-0,9869535,2,70675,0,1087663,2,70675,-0,3222705
0,2087308,9,735257E-06,2,7135,-0,8419318,2,7135,0,136965,2,7135,-0,4310368,0,2087308,1,02388E-05,2,7135,-0,9829252,2,7135,0,1007095,2,7135,-0,3182422
0,20925,1,040665E-05,2,72025,-0,8419318,2,72025,0,1409934,2,72025,-0,4511787,0,20925,7,888914E-06,2,72025,-0,9788967,2,72025,0,1047379,2,72025,-0,3182422
0,2097692,1,19173E-05,2,727,-0,8499885,2,727,0,1409934,2,727,-0,4632639,0,2097692,4,867628E-06,2,727,-0,9788967,2,727,0,1047379,2,727,-0,3222705
0,2102885,1,19173E-05,2,73375,-0,8499885,2,73375,0,1450217,2,73375,-0,4672923,0,2102885,7,888914E-06,2,73375,-0,9829252,2,73375,0,1087663,2,73375,-0,3182422
0,2108077,9,231708E-06,2,7405,-0,8540169,2,7405,0,1409934,2,7405,-0,4632639,0,2108077,1,107805E-05,2,7405,-0,9788967,2,7405,0,1087663,2,7405,-0,3262989
0,2113269,9,567407E-06,2,74725,-0,8540169,2,74725,0,136965,2,74725,-0,4471503,0,2113269,9,231708E-06,2,74725,-0,9788967,2,74725,0,1087663,2,74725,-0,3343557
0,2118462,1,242084E-05,2,754,-0,8580453,2,754,0,1329366,2,754,-0,4390936,0,2118462,8,224613E-06,2,754,-0,9950103,2,754,0,1127947,2,754,-0,3464408
0,2123654,1,326009E-05,2,76075,-0,8540169,2,76075,0,1490501,2,76075,-0,4390936,0,2123654,9,063859E-06,2,76075,-0,9909819,2,76075,0,1168231,2,76075,-0,3464408
0,2128846,1,326009E-05,2,7675,-0,8540169,2,7675,0,1571069,2,7675,-0,4471503,0,2128846,1,040665E-05,2,7675,-0,9869535,2,7675,0,1329366,2,7675,-0,3544976
0,2134039,1,258869E-05,2,77425,-0,8540169,2,77425,0,1732204,2,77425,-0,4511787,0,2134039,1,15816E-05,2,77425,-0,9909819,2,77425,0,1289082,2,77425,-0,3464408
0,2139231,1,19173E-05,2,781,-0,8580453,2,781,0,1732204,2,781,-0,4471503,0,2139231,1,05745E-05,2,781,-0,9950103,2,781,0,1329366,2,781,-0,3424124
0,2144423,1,258869E-05,2,78775,-0,8540169,2,78775,0,1732204,2,78775,-0,443122,0,2144423,9,903106E-06,2,78775,-0,9950103,2,78775,0,1409934,2,78775,-0,3343557
0,2149615,1,510643E-05,2,7945,-0,8540169,2,7945,0,169192,2,7945,-0,4390936,0,2149615,1,12459E-05,2,7945,-0,9950103,2,7945,0,1490501,2,7945,-0,3343557
0,2154808,1,728847E-05,2,80125,-0,8499885,2,80125,0,1651637,2,80125,-0,4471503,0,2154808,1,326009E-05,2,80125,-0,9909819,2,80125,0,1490501,2,80125,-0,3343557
0,216,1,779202E-05,2,808,-0,8499885,2,808,0,1571069,2,808,-0,4592355,0,216,1,225299E-05,2,808,-0,9909819,2,808,0,1450217,2,808,-0,3303273
0,2165192,1,661708E-05,2,81475,-0,8459601,2,81475,0,1530785,2,81475,-0,4552071,0,2165192,1,007095E-05,2,81475,-0,9829252,2,81475,0,136965,2,81475,-0,3303273
0,2170385,1,443503E-05,2,8215,-0,8379034,2,8215,0,1530785,2,8215,-0,4511787,0,2170385,9,231708E-06,2,8215,-0,9788967,2,8215,0,1329366,2,8215,-0,3424124
0,2175577,1,292439E-05,2,82825,-0,833875,2,82825,0,1490501,2,82825,-0,4471503,0,2175577,1,02388E-05,2,82825,-0,9627832,2,82825,0,1248798,2,82825,-0,3303273
0,2180769,1,19173E-05,2,835,-0,8298466,2,835,0,1450217,2,835,-0,4471503,0,2180769,1,359579E-05,2,835,-0,9627832,2,835,0,1087663,2,835,-0,3303273
0,2185962,1,326009E-05,2,84175,-0,8298466,2,84175,0,1450217,2,84175,-0,443122,0,2185962,1,460288E-05,2,84175,-0,9547265,2,84175,0,1007095,2,84175,-0,3222705
0,2191154,1,326009E-05,2,8485,-0,8298466,2,8485,0,1611353,2,8485,-0,4390936,0,2191154,1,258869E-05,2,8485,-0,9587549,2,8485,0,0886244,2,8485,-0,3222705
0,2196346,1,09102E-05,2,85525,-0,8298466,2,85525,0,1772488,2,85525,-0,4350652,0,2196346,8,89601E-06,2,85525,-0,9627832,2,85525,0,08459602,2,85525,-0,3182422
0,2201539,1,05745E-05,2,862,-0,833875,2,862,0,1853056,2,862,-0,4350652,0,2201539,6,54612E-06,2,862,-0,9748684,2,862,0,07653925,2,862,-0,3222705
0,2206731,9,567407E-06,2,86875,-0,8419318,2,86875,0,1973907,2,86875,-0,443122,0,2206731,9,399557E-06,2,86875,-0,9869535,2,86875,0,08056764,2,86875,-0,3262989
0,2211923,7,385367E-06,2,8755,-0,8540169,2,8755,0,1973907,2,8755,-0,4511787,0,2211923,1,141375E-05,2,8755,-1,007095,2,8755,0,08459602,2,8755,-0,3222705
0,2217115,5,539025E-06,2,88225,-0,8620737,2,88225,0,1893339,2,88225,-0,4471503,0,2217115,9,231708E-06,2,88225,-1,015152,2,88225,0,0886244,2,88225,-0,3262989
0,2222308,4,699778E-06,2,889,-0,866102,2,889,0,169192,2,889,-0,4552071,0,2222308,5,203327E-06,2,889,-1,019181,2,889,0,09265278,2,889,-0,3343557
0,22275,5,203327E-06,2,89575,-0,8580453,2,89575,0,1530785,2,89575,-0,4672923,0,22275,5,874724E-06,2,89575,-1,007095,2,89575,0,1047379,2,89575,-0,3343557
0,2232692,6,71397E-06,2,9025,-0,8499885,2,9025,0,136965,2,9025,-0,4753491,0,2232692,7,217517E-06,2,9025,-0,9950103,2,9025,0,1168231,2,9025,-0,3424124
0,2237885,6,881819E-06,2,90925,-0,8419318,2,90925,0,1208515,2,90925,-0,4672923,0,2237885,7,888914E-06,2,90925,-0,9829252,2,90925,0,1208515,2,90925,-0,3303273
0,2243077,5,706875E-06,2,916,-0,8419318,2,916,0,1127947,2,916,-0,4552071,0,2243077,7,721065E-06,2,916,-0,9829252,2,916,0,1168231,2,916,-0,3303273
0,2248269,5,706875E-06,2,92275,-0,8459601,2,92275,0,1208515,2,92275,-0,4390936,0,2248269,8,224613E-06,2,92275,-0,9788967,2,92275,0,1127947,2,92275,-0,3343557
0,2253462,6,378271E-06,2,9295,-0,8580453,2,9295,0,1329366,2,9295,-0,4390936,0,2253462,8,89601E-06,2,9295,-0,9788967,2,9295,0,1007095,2,9295,-0,3383841
0,2258654,7,888914E-06,2,93625,-0,8620737,2,93625,0,1530785,2,93625,-0,4390936,0,2258654,9,567407E-06,2,93625,-0,9788967,2,93625,0,1087663,2,93625,-0,3303273
0,2263846,6,54612E-06,2,943,-0,8620737,2,943,0,1651637,2,943,-0,4350652,0,2263846,1,02388E-05,2,943,-0,9950103,2,943,0,1087663,2,943,-0,3262989
0,2269039,3,356985E-06,2,94975,-0,8540169,2,94975,0,1812772,2,94975,-0,4350652,0,2269039,1,05745E-05,2,94975,-0,9950103,2,94975,0,1127947,2,94975,-0,3303273
0,2274231,3,860533E-06,2,9565,-0,8459601,2,9565,0,1853056,2,9565,-0,443122,0,2274231,8,560311E-06,2,9565,-1,003067,2,9565,0,1168231,2,9565,-0,3343557
0,2279423,8,728161E-06,2,96325,-0,8499885,2,96325,0,1853056,2,96325,-0,4511787,0,2279423,7,721065E-06,2,96325,-1,003067,2,96325,0,1248798,2,96325,-0,3383841
0,2284615,1,225299E-05,2,97,-0,8499885,2,97,0,1812772,2,97,-0,4552071,0,2284615,3,692683E-06,2,97,-0,9990387,2,97,0,136965,2,97,-0,3464408
0,2289808,1,15816E-05,2,97675,-0,8499885,2,97675,0,1812772,2,97675,-0,4592355,0,2289808,-2,517739E-06,2,97675,-1,003067,2,97675,0,136965,2,97675,-0,3383841
0,2295,1,141375E-05,2,9835,-0,8540169,2,9835,0,1732204,2,9835,-0,4632639,0,2295,-3,021286E-06,2,9835,-0,9950103,2,9835,0,136965,2,9835,-0,3424124
0,2300192,1,05745E-05,2,99025,-0,8540169,2,99025,0,169192,2,99025,-0,4632639,0,2300192,2,517739E-06,2,99025,-0,9788967,2,99025,0,136965,2,99025,-0,3343557
0,2305385,1,19173E-05,2,997,-0,8459601,2,997,0,169192,2,997,-0,4592355,0,2305385,7,217517E-06,2,997,-0,9748684,2,997,0,1208515,2,997,-0,3343557
0,2310577,1,05745E-05,3,00375,-0,833875,3,00375,0,1732204,3,00375,-0,4390936,0,2310577,8,224613E-06,3,00375,-0,9668117,3,00375,0,1168231,3,00375,-0,3343557
0,2315769,8,560311E-06,3,0105,-0,833875,3,0105,0,169192,3,0105,-0,4108949,0,2315769,8,89601E-06,3,0105,-0,9627832,3,0105,0,1087663,3,0105,-0,3343557
0,2320962,9,903106E-06,3,01725,-0,8217899,3,01725,0,1611353,3,01725,-0,4068666,0,2320962,7,217517E-06,3,01725,-0,9668117,3,01725,0,1007095,3,01725,-0,3303273
0,2326154,1,09102E-05,3,024,-0,8177615,3,024,0,1571069,3,024,-0,4350652,0,2326154,5,203327E-06,3,024,-0,9748684,3,024,0,1007095,3,024,-0,3343557
0,2331346,1,040665E-05,3,03075,-0,8258182,3,03075,0,1530785,3,03075,-0,4592355,0,2331346,5,706875E-06,3,03075,-0,9668117,3,03075,0,1007095,3,03075,-0,3343557
0,2336538,1,05745E-05,3,0375,-0,8298466,3,0375,0,1450217,3,0375,-0,4632639,0,2336538,6,378271E-06,3,0375,-0,9788967,3,0375,0,1007095,3,0375,-0,3303273
0,2341731,9,903106E-06,3,04425,-0,8379034,3,04425,0,1289082,3,04425,-0,4632639,0,2341731,6,042573E-06,3,04425,-0,9829252,3,04425,0,1127947,3,04425,-0,3303273
0,2346923,9,399557E-06,3,051,-0,8379034,3,051,0,1289082,3,051,-0,4511787,0,2346923,6,54612E-06,3,051,-0,9829252,3,051,0,1127947,3,051,-0,3262989
0,2352115,9,231708E-06,3,05775,-0,8459601,3,05775,0,1329366,3,05775,-0,4552071,0,2352115,5,706875E-06,3,05775,-0,9909819,3,05775,0,1127947,3,05775,-0,3343557
0,2357308,8,392462E-06,3,0645,-0,8499885,3,0645,0,1450217,3,0645,-0,4632639,0,2357308,3,021286E-06,3,0645,-0,9869535,3,0645,0,1168231,3,0645,-0,3383841
0,23625,7,217517E-06,3,07125,-0,8540169,3,07125,0,1611353,3,07125,-0,4592355,0,23625,4,531929E-06,3,07125,-0,9829252,3,07125,0,1208515,3,07125,-0,3424124
0,2367692,7,217517E-06,3,078,-0,8540169,3,078,0,1732204,3,078,-0,4672923,0,2367692,5,539025E-06,3,078,-0,9829252,3,078,0,1127947,3,078,-0,3424124
0,2372885,7,049668E-06,3,08475,-0,8620737,3,08475,0,1812772,3,08475,-0,4552071,0,2372885,5,539025E-06,3,08475,-0,9869535,3,08475,0,1168231,3,08475,-0,3303273
0,2378077,7,217517E-06,3,0915,-0,8540169,3,0915,0,1812772,3,0915,-0,4471503,0,2378077,5,203327E-06,3,0915,-0,9909819,3,0915,0,1168231,3,0915,-0,3303273
0,2383269,9,063859E-06,3,09825,-0,8540169,3,09825,0,1853056,3,09825,-0,4350652,0,2383269,2,517739E-06,3,09825,-0,9909819,3,09825,0,1127947,3,09825,-0,3182422
0,2388462,1,09102E-05,3,105,-0,8459601,3,105,0,169192,3,105,-0,4270085,0,2388462,4,531929E-06,3,105,-0,9909819,3,105,0,1127947,3,105,-0,3182422
0,2393654,1,376364E-05,3,11175,-0,8459601,3,11175,0,1651637,3,11175,-0,4270085,0,2393654,8,392462E-06,3,11175,-0,9950103,3,11175,0,1168231,3,11175,-0,3222705
0,2398846,1,460288E-05,3,1185,-0,8459601,3,1185,0,1611353,3,1185,-0,4270085,0,2398846,8,560311E-06,3,1185,-0,9909819,3,1185,0,1168231,3,1185,-0,3343557
0,2404038,1,292439E-05,3,12525,-0,8419318,3,12525,0,1732204,3,12525,-0,4471503,0,2404038,9,903106E-06,3,12525,-0,9950103,3,12525,0,1208515,3,12525,-0,3343557
0,2409231,1,19173E-05,3,132,-0,8379034,3,132,0,1772488,3,132,-0,4552071,0,2409231,1,242084E-05,3,132,-0,9950103,3,132,0,1248798,3,132,-0,3343557
0,2414423,1,393149E-05,3,13875,-0,8499885,3,13875,0,169192,3,13875,-0,4632639,0,2414423,1,258869E-05,3,13875,-0,9950103,3,13875,0,1248798,3,13875,-0,3343557
0,2419615,1,426719E-05,3,1455,-0,8580453,3,1455,0,1530785,3,1455,-0,4632639,0,2419615,1,141375E-05,3,1455,-0,9950103,3,1455,0,1329366,3,1455,-0,3303273
0,2424808,1,19173E-05,3,15225,-0,866102,3,15225,0,1450217,3,15225,-0,4592355,0,2424808,1,05745E-05,3,15225,-0,9950103,3,15225,0,136965,3,15225,-0,3262989
0,243,1,040665E-05,3,159,-0,866102,3,159,0,136965,3,159,-0,4552071,0,243,1,040665E-05,3,159,-0,9909819,3,159,0,1289082,3,159,-0,3222705
0,2435192,9,231708E-06,3,16575,-0,8620737,3,16575,0,1329366,3,16575,-0,4511787,0,2435192,9,903106E-06,3,16575,-0,9788967,3,16575,0,1289082,3,16575,-0,3222705
0,2440385,8,89601E-06,3,1725,-0,8499885,3,1725,0,1409934,3,1725,-0,4390936,0,2440385,9,231708E-06,3,1725,-0,97084,3,1725,0,1168231,3,1725,-0,3222705
0,2445577,9,231708E-06,3,17925,-0,8379034,3,17925,0,1490501,3,17925,-0,4350652,0,2445577,8,89601E-06,3,17925,-0,9668117,3,17925,0,1127947,3,17925,-0,3182422
0,2450769,1,05745E-05,3,186,-0,833875,3,186,0,1651637,3,186,-0,4390936,0,2450769,9,063859E-06,3,186,-0,9668117,3,186,0,1087663,3,186,-0,3222705
0,2455962,1,19173E-05,3,19275,-0,8298466,3,19275,0,1651637,3,19275,-0,4390936,0,2455962,7,217517E-06,3,19275,-0,97084,3,19275,0,1047379,3,19275,-0,3222705
0,2461154,1,258869E-05,3,1995,-0,833875,3,1995,0,1732204,3,1995,-0,4471503,0,2461154,8,560311E-06,3,1995,-0,9668117,3,1995,0,09668116,3,1995,-0,3343557
0,2466346,1,376364E-05,3,20625,-0,833875,3,20625,0,1772488,3,20625,-0,443122,0,2466346,1,292439E-05,3,20625,-0,9829252,3,20625,0,09265278,3,20625,-0,3343557
0,2471538,1,359579E-05,3,213,-0,8459601,3,213,0,1812772,3,213,-0,4471503,0,2471538,1,258869E-05,3,213,-0,9990387,3,213,0,09668116,3,213,-0,3303273
0,2476731,1,19173E-05,3,21975,-0,8499885,3,21975,0,1853056,3,21975,-0,4552071,0,2476731,8,056764E-06,3,21975,-1,011124,3,21975,0,09668116,3,21975,-0,3303273
0,2481923,1,12459E-05,3,2265,-0,8540169,3,2265,0,1772488,3,2265,-0,4592355,0,2481923,7,553216E-06,3,2265,-1,011124,3,2265,0,1127947,3,2265,-0,3383841
0,2487115,1,19173E-05,3,23325,-0,8580453,3,23325,0,169192,3,23325,-0,4552071,0,2487115,1,15816E-05,3,23325,-1,011124,3,23325,0,1208515,3,23325,-0,3383841
0,2492308,1,326009E-05,3,24,-0,8580453,3,24,0,1571069,3,24,-0,4592355,0,2492308,1,510643E-05,3,24,-1,003067,3,24,0,1168231,3,24,-0,3424124
0,24975,1,326009E-05,3,24675,-0,8499885,3,24675,0,1490501,3,24675,-0,4552071,0,24975,1,174945E-05,3,24675,-0,9950103,3,24675,0,1329366,3,24675,-0,3343557
0,2502692,1,309224E-05,3,2535,-0,8459601,3,2535,0,1450217,3,2535,-0,4471503,0,2502692,8,056764E-06,3,2535,-0,9748684,3,2535,0,1329366,3,2535,-0,3303273
0,2507885,9,567407E-06,3,26025,-0,8419318,3,26025,0,136965,3,26025,-0,4390936,0,2507885,9,063859E-06,3,26025,-0,9627832,3,26025,0,1289082,3,26025,-0,3303273
0,2513077,7,553216E-06,3,267,-0,8419318,3,267,0,136965,3,267,-0,443122,0,2513077,7,553216E-06,3,267,-0,9587549,3,267,0,1248798,3,267,-0,3303273
0,2518269,9,063859E-06,3,27375,-0,8459601,3,27375,0,1450217,3,27375,-0,4471503,0,2518269,6,54612E-06,3,27375,-0,9587549,3,27375,0,1248798,3,27375,-0,3303273
0,2523462,9,567407E-06,3,2805,-0,8419318,3,2805,0,1450217,3,2805,-0,4552071,0,2523462,7,217517E-06,3,2805,-0,9668117,3,2805,0,1248798,3,2805,-0,3383841
0,2528654,1,107805E-05,3,28725,-0,8419318,3,28725,0,1409934,3,28725,-0,4592355,0,2528654,7,888914E-06,3,28725,-0,9748684,3,28725,0,1289082,3,28725,-0,3383841
0,2533846,1,242084E-05,3,294,-0,8499885,3,294,0,1490501,3,294,-0,4592355,0,2533846,8,89601E-06,3,294,-0,9829252,3,294,0,1329366,3,294,-0,3504692
0,2539038,1,19173E-05,3,30075,-0,8620737,3,30075,0,1651637,3,30075,-0,4471503,0,2539038,1,09102E-05,3,30075,-0,9990387,3,30075,0,1248798,3,30075,-0,3504692
0,2544231,1,376364E-05,3,3075,-0,8701304,3,3075,0,1812772,3,3075,-0,443122,0,2544231,1,174945E-05,3,3075,-1,007095,3,3075,0,1248798,3,3075,-0,3504692
0,2549423,1,493858E-05,3,31425,-0,8701304,3,31425,0,1933623,3,31425,-0,4350652,0,2549423,1,174945E-05,3,31425,-1,011124,3,31425,0,1248798,3,31425,-0,3383841
0,2554615,1,05745E-05,3,321,-0,8620737,3,321,0,1933623,3,321,-0,4471503,0,2554615,1,359579E-05,3,321,-1,011124,3,321,0,1087663,3,321,-0,3262989
0,2559808,6,378271E-06,3,32775,-0,8499885,3,32775,0,1893339,3,32775,-0,4511787,0,2559808,1,141375E-05,3,32775,-1,011124,3,32775,0,1047379,3,32775,-0,3222705
0,2565,5,706875E-06,3,3345,-0,8459601,3,3345,0,1732204,3,3345,-0,4632639,0,2565,9,231708E-06,3,3345,-1,003067,3,3345,0,1047379,3,3345,-0,3182422
0,2570192,8,392462E-06,3,34125,-0,8379034,3,34125,0,1611353,3,34125,-0,4552071,0,2570192,7,217517E-06,3,34125,-0,9869535,3,34125,0,1047379,3,34125,-0,3142138
0,2575385,1,15816E-05,3,348,-0,833875,3,348,0,1530785,3,348,-0,4592355,0,2575385,5,874724E-06,3,348,-0,9788967,3,348,0,09265278,3,348,-0,3182422
0,2580577,1,12459E-05,3,35475,-0,8298466,3,35475,0,1490501,3,35475,-0,4511787,0,2580577,6,881819E-06,3,35475,-0,97084,3,35475,0,09668116,3,35475,-0,3222705
0,2585769,9,231708E-06,3,3615,-0,8379034,3,3615,0,1450217,3,3615,-0,4511787,0,2585769,8,056764E-06,3,3615,-0,9668117,3,3615,0,09265278,3,3615,-0,3424124
0,2590961,1,05745E-05,3,36825,-0,8459601,3,36825,0,1450217,3,36825,-0,4511787,0,2590961,7,217517E-06,3,36825,-0,9668117,3,36825,0,1007095,3,36825,-0,3383841
0,2596154,1,393149E-05,3,375,-0,8540169,3,375,0,136965,3,375,-0,4471503,0,2596154,7,217517E-06,3,375,-0,9668117,3,375,0,1127947,3,375,-0,3464408
0,2601346,1,443503E-05,3,38175,-0,8580453,3,38175,0,1329366,3,38175,-0,4471503,0,2601346,9,567407E-06,3,38175,-0,9788967,3,38175,0,1168231,3,38175,-0,3464408
0,2606539,1,376364E-05,3,3885,-0,8580453,3,3885,0,1289082,3,3885,-0,443122,0,2606539,1,208515E-05,3,3885,-0,9869535,3,3885,0,1248798,3,3885,-0,358526
0,2611731,1,393149E-05,3,39525,-0,8580453,3,39525,0,136965,3,39525,-0,443122,0,2611731,1,292439E-05,3,39525,-0,9909819,3,39525,0,136965,3,39525,-0,3464408
0,2616923,1,225299E-05,3,402,-0,8499885,3,402,0,1409934,3,402,-0,4350652,0,2616923,1,409934E-05,3,402,-0,9950103,3,402,0,136965,3,402,-0,3383841
0,2622115,1,19173E-05,3,40875,-0,8499885,3,40875,0,1611353,3,40875,-0,4390936,0,2622115,1,376364E-05,3,40875,-0,9909819,3,40875,0,1329366,3,40875,-0,3182422
0,2627308,1,208515E-05,3,4155,-0,8580453,3,4155,0,1812772,3,4155,-0,443122,0,2627308,1,258869E-05,3,4155,-0,9950103,3,4155,0,1289082,3,4155,-0,3182422
0,26325,1,258869E-05,3,42225,-0,8419318,3,42225,0,2014191,3,42225,-0,4350652,0,26325,1,326009E-05,3,42225,-0,9909819,3,42225,0,1248798,3,42225,-0,3101854
0,2637692,1,258869E-05,3,429,-0,8379034,3,429,0,2014191,3,429,-0,4350652,0,2637692,1,225299E-05,3,429,-0,9950103,3,429,0,1208515,3,429,-0,3222705
0,2642885,1,02388E-05,3,43575,-0,833875,3,43575,0,1853056,3,43575,-0,443122,0,2642885,1,02388E-05,3,43575,-0,9829252,3,43575,0,1168231,3,43575,-0,3262989
0,2648077,8,224613E-06,3,4425,-0,8419318,3,4425,0,1772488,3,4425,-0,4632639,0,2648077,8,056764E-06,3,4425,-0,9829252,3,4425,0,1127947,3,4425,-0,3343557
0,2653269,8,224613E-06,3,44925,-0,8459601,3,44925,0,1571069,3,44925,-0,4632639,0,2653269,4,867628E-06,3,44925,-0,9788967,3,44925,0,1127947,3,44925,-0,3383841
0,2658462,9,231708E-06,3,456,-0,8540169,3,456,0,1450217,3,456,-0,4552071,0,2658462,5,539025E-06,3,456,-0,9829252,3,456,0,1168231,3,456,-0,3424124
0,2663654,9,567407E-06,3,46275,-0,8580453,3,46275,0,1329366,3,46275,-0,4552071,0,2663654,7,217517E-06,3,46275,-0,9909819,3,46275,0,1168231,3,46275,-0,3383841
0,2668846,9,567407E-06,3,4695,-0,8620737,3,4695,0,1450217,3,4695,-0,4471503,0,2668846,5,874724E-06,3,4695,-0,9869535,3,4695,0,1168231,3,4695,-0,3383841
0,2674038,6,881819E-06,3,47625,-0,866102,3,47625,0,1530785,3,47625,-0,443122,0,2674038,3,524834E-06,3,47625,-0,9950103,3,47625,0,1127947,3,47625,-0,3424124
0,2679231,5,203327E-06,3,483,-0,8540169,3,483,0,1611353,3,483,-0,443122,0,2679231,2,853437E-06,3,483,-0,9990387,3,483,0,1047379,3,483,-0,3464408
0,2684423,7,888914E-06,3,48975,-0,8499885,3,48975,0,1611353,3,48975,-0,443122,0,2684423,3,524834E-06,3,48975,-0,9909819,3,48975,0,1047379,3,48975,-0,3343557
0,2689615,1,225299E-05,3,4965,-0,8419318,3,4965,0,1571069,3,4965,-0,4390936,0,2689615,5,539025E-06,3,4965,-0,9829252,3,4965,0,1047379,3,4965,-0,3303273
0,2694808,1,359579E-05,3,50325,-0,8258182,3,50325,0,1571069,3,50325,-0,443122,0,2694808,7,553216E-06,3,50325,-0,9788967,3,50325,0,1047379,3,50325,-0,3222705
0,27,1,19173E-05,3,51,-0,8177615,3,51,0,1571069,3,51,-0,4350652,0,27,6,54612E-06,3,51,-0,9627832,3,51,0,1047379,3,51,-0,3222705
0,2705192,9,735257E-06,3,51675,-0,8217899,3,51675,0,169192,3,51675,-0,443122,0,2705192,6,210422E-06,3,51675,-0,9627832,3,51675,0,1047379,3,51675,-0,3222705
0,2710385,7,888914E-06,3,5235,-0,833875,3,5235,0,1772488,3,5235,-0,4511787,0,2710385,8,89601E-06,3,5235,-0,9748684,3,5235,0,1087663,3,5235,-0,3343557
0,2715577,5,203327E-06,3,53025,-0,8499885,3,53025,0,169192,3,53025,-0,4592355,0,2715577,1,15816E-05,3,53025,-0,9869535,3,53025,0,1208515,3,53025,-0,3343557
0,2720769,4,196231E-06,3,537,-0,866102,3,537,0,1611353,3,537,-0,4672923,0,2720769,1,15816E-05,3,537,-1,003067,3,537,0,1289082,3,537,-0,3383841
0,2725962,7,553216E-06,3,54375,-0,8701304,3,54375,0,1490501,3,54375,-0,4713207,0,2725962,9,231708E-06,3,54375,-1,007095,3,54375,0,136965,3,54375,-0,3464408
0,2731154,1,19173E-05,3,5505,-0,8741588,3,5505,0,136965,3,5505,-0,4592355,0,2731154,8,392462E-06,3,5505,-1,011124,3,5505,0,1450217,3,5505,-0,3504692
0,2736346,1,460288E-05,3,55725,-0,8620737,3,55725,0,136965,3,55725,-0,4511787,0,2736346,7,888914E-06,3,55725,-0,9990387,3,55725,0,1409934,3,55725,-0,3464408
0,2741539,1,309224E-05,3,564,-0,8540169,3,564,0,1409934,3,564,-0,4511787,0,2741539,9,735257E-06,3,564,-0,9950103,3,564,0,1289082,3,564,-0,3504692
0,2746731,8,89601E-06,3,57075,-0,8419318,3,57075,0,1571069,3,57075,-0,443122,0,2746731,1,208515E-05,3,57075,-0,9869535,3,57075,0,1248798,3,57075,-0,3343557
0,2751923,7,385367E-06,3,5775,-0,833875,3,5775,0,1611353,3,5775,-0,443122,0,2751923,1,174945E-05,3,5775,-0,9788967,3,5775,0,1047379,3,5775,-0,3343557
0,2757115,9,735257E-06,3,58425,-0,8177615,3,58425,0,1772488,3,58425,-0,4390936,0,2757115,8,728161E-06,3,58425,-0,9668117,3,58425,0,09265278,3,58425,-0,3222705
0,2762308,1,376364E-05,3,591,-0,8258182,3,591,0,1853056,3,591,-0,4511787,0,2762308,5,203327E-06,3,591,-0,9627832,3,591,0,0886244,3,591,-0,3262989
0,27675,1,594568E-05,3,59775,-0,8258182,3,59775,0,1933623,3,59775,-0,4471503,0,27675,3,524834E-06,3,59775,-0,9668117,3,59775,0,0886244,3,59775,-0,3222705
0,2772692,1,493858E-05,3,6045,-0,833875,3,6045,0,1933623,3,6045,-0,4511787,0,2772692,6,042573E-06,3,6045,-0,9668117,3,6045,0,0886244,3,6045,-0,3182422
0,2777885,1,19173E-05,3,61125,-0,8419318,3,61125,0,1812772,3,61125,-0,4511787,0,2777885,9,399557E-06,3,61125,-0,97084,3,61125,0,09668116,3,61125,-0,3303273
0,2783077,1,09102E-05,3,618,-0,8499885,3,618,0,1530785,3,618,-0,4592355,0,2783077,1,19173E-05,3,618,-0,9869535,3,618,0,1047379,3,618,-0,3303273
0,2788269,1,326009E-05,3,62475,-0,8580453,3,62475,0,1490501,3,62475,-0,4632639,0,2788269,1,258869E-05,3,62475,-0,9909819,3,62475,0,1208515,3,62475,-0,3343557
0,2793462,1,493858E-05,3,6315,-0,8580453,3,6315,0,1450217,3,6315,-0,4672923,0,2793462,1,12459E-05,3,6315,-1,003067,3,6315,0,1248798,3,6315,-0,3343557
0,2798654,1,242084E-05,3,63825,-0,8580453,3,63825,0,1530785,3,63825,-0,4632639,0,2798654,8,224613E-06,3,63825,-1,003067,3,63825,0,1329366,3,63825,-0,3383841
0,2803846,1,040665E-05,3,645,-0,8540169,3,645,0,1571069,3,645,-0,4632639,0,2803846,7,217517E-06,3,645,-1,003067,3,645,0,1208515,3,645,-0,3424124
0,2809038,9,063859E-06,3,65175,-0,8620737,3,65175,0,169192,3,65175,-0,4511787,0,2809038,9,399557E-06,3,65175,-1,003067,3,65175,0,1168231,3,65175,-0,3343557
0,2814231,8,89601E-06,3,6585,-0,8580453,3,6585,0,1732204,3,6585,-0,4471503,0,2814231,9,903106E-06,3,6585,-0,9990387,3,6585,0,1127947,3,6585,-0,3303273
0,2819423,1,05745E-05,3,66525,-0,8540169,3,66525,0,169192,3,66525,-0,443122,0,2819423,6,71397E-06,3,66525,-0,9950103,3,66525,0,1087663,3,66525,-0,3262989
0,2824616,1,376364E-05,3,672,-0,8620737,3,672,0,169192,3,672,-0,4350652,0,2824616,5,035477E-06,3,672,-0,9950103,3,672,0,1047379,3,672,-0,3303273
0,2829808,1,510643E-05,3,67875,-0,8499885,3,67875,0,1732204,3,67875,-0,4310368,0,2829808,5,035477E-06,3,67875,-0,9829252,3,67875,0,1087663,3,67875,-0,3262989
0,2835,1,443503E-05,3,6855,-0,8540169,3,6855,0,1772488,3,6855,-0,4350652,0,2835,6,71397E-06,3,6855,-0,9869535,3,6855,0,1007095,3,6855,-0,3262989
0,2840192,1,174945E-05,3,69225,-0,8419318,3,69225,0,1893339,3,69225,-0,4471503,0,2840192,9,063859E-06,3,69225,-0,9909819,3,69225,0,1047379,3,69225,-0,3262989
0,2845385,1,174945E-05,3,699,-0,8379034,3,699,0,1853056,3,699,-0,4552071,0,2845385,8,224613E-06,3,699,-0,9829252,3,699,0,1087663,3,699,-0,3303273
0,2850577,1,225299E-05,3,70575,-0,8298466,3,70575,0,1732204,3,70575,-0,4672923,0,2850577,7,888914E-06,3,70575,-0,9829252,3,70575,0,1208515,3,70575,-0,3383841
0,2855769,1,05745E-05,3,7125,-0,8379034,3,7125,0,1571069,3,7125,-0,4753491,0,2855769,7,888914E-06,3,7125,-0,9829252,3,7125,0,1168231,3,7125,-0,3343557
0,2860962,8,89601E-06,3,71925,-0,8419318,3,71925,0,1490501,3,71925,-0,4753491,0,2860962,6,210422E-06,3,71925,-0,9909819,3,71925,0,1248798,3,71925,-0,3383841
0,2866154,8,392462E-06,3,726,-0,8499885,3,726,0,1409934,3,726,-0,4672923,0,2866154,5,706875E-06,3,726,-0,9909819,3,726,0,1248798,3,726,-0,3464408
0,2871346,1,007095E-05,3,73275,-0,8459601,3,73275,0,136965,3,73275,-0,4552071,0,2871346,4,531929E-06,3,73275,-0,9829252,3,73275,0,1208515,3,73275,-0,3464408
0,2876539,1,141375E-05,3,7395,-0,8419318,3,7395,0,1329366,3,7395,-0,4511787,0,2876539,3,860533E-06,3,7395,-0,9788967,3,7395,0,1168231,3,7395,-0,3504692
0,2881731,9,903106E-06,3,74625,-0,833875,3,74625,0,1329366,3,74625,-0,4511787,0,2881731,5,203327E-06,3,74625,-0,9788967,3,74625,0,1087663,3,74625,-0,3544976
0,2886923,9,063859E-06,3,753,-0,8258182,3,753,0,136965,3,753,-0,4632639,0,2886923,6,54612E-06,3,753,-0,9627832,3,753,0,1087663,3,753,-0,3544976
0,2892115,1,02388E-05,3,75975,-0,833875,3,75975,0,1409934,3,75975,-0,4672923,0,2892115,2,853437E-06,3,75975,-0,9627832,3,75975,0,1087663,3,75975,-0,3544976
0,2897308,9,735257E-06,3,7665,-0,8459601,3,7665,0,1530785,3,7665,-0,4552071,0,2897308,1,174945E-06,3,7665,-0,9627832,3,7665,0,1087663,3,7665,-0,358526
0,29025,8,89601E-06,3,77325,-0,8459601,3,77325,0,1571069,3,77325,-0,443122,0,29025,2,349889E-06,3,77325,-0,9627832,3,77325,0,1127947,3,77325,-0,3464408
0,2907692,9,231708E-06,3,78,-0,8459601,3,78,0,169192,3,78,-0,4471503,0,2907692,2,853437E-06,3,78,-0,97084,3,78,0,1168231,3,78,-0,3424124
0,2912885,8,89601E-06,3,78675,-0,8540169,3,78675,0,1812772,3,78675,-0,4471503,0,2912885,1,846342E-06,3,78675,-0,9788967,3,78675,0,1248798,3,78675,-0,3303273
0,2918077,8,560311E-06,3,7935,-0,8459601,3,7935,0,1933623,3,7935,-0,4511787,0,2918077,-1,678492E-07,3,7935,-0,9869535,3,7935,0,1248798,3,7935,-0,3303273
0,2923269,1,141375E-05,3,80025,-0,8499885,3,80025,0,1933623,3,80025,-0,4511787,0,2923269,-8,392462E-07,3,80025,-0,9950103,3,80025,0,1208515,3,80025,-0,3222705
0,2928461,1,443503E-05,3,807,-0,8459601,3,807,0,1853056,3,807,-0,4552071,0,2928461,5,035478E-07,3,807,-1,003067,3,807,0,1168231,3,807,-0,3182422
0,2933654,1,326009E-05,3,81375,-0,8459601,3,81375,0,1732204,3,81375,-0,4552071,0,2933654,1,174945E-06,3,81375,-1,007095,3,81375,0,1127947,3,81375,-0,3182422
0,2938846,1,225299E-05,3,8205,-0,8540169,3,8205,0,1490501,3,8205,-0,4552071,0,2938846,6,713969E-07,3,8205,-1,007095,3,8205,0,1087663,3,8205,-0,3222705
0,2944039,1,141375E-05,3,82725,-0,8540169,3,82725,0,1530785,3,82725,-0,4592355,0,2944039,1,678492E-06,3,82725,-1,007095,3,82725,0,1047379,3,82725,-0,3303273
0,2949231,1,12459E-05,3,834,-0,8540169,3,834,0,1490501,3,834,-0,4592355,0,2949231,2,853437E-06,3,834,-0,9990387,3,834,0,09668116,3,834,-0,3504692
0,2954423,1,12459E-05,3,84075,-0,8540169,3,84075,0,1530785,3,84075,-0,4592355,0,2954423,2,517739E-06,3,84075,-0,9950103,3,84075,0,09668116,3,84075,-0,358526
0,2959615,1,393149E-05,3,8475,-0,8540169,3,8475,0,1530785,3,8475,-0,4672923,0,2959615,5,035478E-07,3,8475,-0,9950103,3,8475,0,1007095,3,8475,-0,3464408
0,2964808,1,762417E-05,3,85425,-0,8540169,3,85425,0,1490501,3,85425,-0,4552071,0,2964808,2,18204E-06,3,85425,-0,9869535,3,85425,0,1047379,3,85425,-0,3504692
0,297,1,913481E-05,3,861,-0,8459601,3,861,0,1571069,3,861,-0,4552071,0,297,4,531929E-06,3,861,-0,9829252,3,861,0,1007095,3,861,-0,3464408
0,2975192,1,695277E-05,3,86775,-0,8419318,3,86775,0,169192,3,86775,-0,443122,0,2975192,5,203327E-06,3,86775,-0,9788967,3,86775,0,1047379,3,86775,-0,3424124
0,2980385,1,376364E-05,3,8745,-0,8379034,3,8745,0,169192,3,8745,-0,4390936,0,2980385,7,217517E-06,3,8745,-0,9748684,3,8745,0,1047379,3,8745,-0,3343557
0,2985577,1,05745E-05,3,88125,-0,833875,3,88125,0,1651637,3,88125,-0,4471503,0,2985577,9,567407E-06,3,88125,-0,97084,3,88125,0,1087663,3,88125,-0,3343557
0,2990769,1,05745E-05,3,888,-0,8298466,3,888,0,1611353,3,888,-0,4592355,0,2990769,1,19173E-05,3,888,-0,9788967,3,888,0,1127947,3,888,-0,3343557
0,2995962,1,225299E-05,3,89475,-0,833875,3,89475,0,1571069,3,89475,-0,4632639,0,2995962,9,903106E-06,3,89475,-0,9829252,3,89475,0,1208515,3,89475,-0,3262989
0,3001154,1,225299E-05,3,9015,-0,8419318,3,9015,0,1651637,3,9015,-0,4632639,0,3001154,8,560311E-06,3,9015,-0,9909819,3,9015,0,1208515,3,9015,-0,3262989
0,3006346,1,342794E-05,3,90825,-0,8540169,3,90825,0,1732204,3,90825,-0,4632639,0,3006346,8,560311E-06,3,90825,-0,9950103,3,90825,0,1248798,3,90825,-0,3303273
0,3011538,1,510643E-05,3,915,-0,8540169,3,915,0,169192,3,915,-0,4592355,0,3011538,7,217517E-06,3,915,-0,9909819,3,915,0,1289082,3,915,-0,3424124
0,3016731,1,426719E-05,3,92175,-0,8540169,3,92175,0,1732204,3,92175,-0,4552071,0,3016731,7,217517E-06,3,92175,-0,9909819,3,92175,0,1248798,3,92175,-0,3343557
0,3021923,1,309224E-05,3,9285,-0,8620737,3,9285,0,1651637,3,9285,-0,4592355,0,3021923,8,89601E-06,3,9285,-0,9869535,3,9285,0,1168231,3,9285,-0,3424124
0,3027115,1,292439E-05,3,93525,-0,866102,3,93525,0,1611353,3,93525,-0,4592355,0,3027115,9,063859E-06,3,93525,-0,9829252,3,93525,0,1087663,3,93525,-0,3424124
0,3032308,1,174945E-05,3,942,-0,8580453,3,942,0,1611353,3,942,-0,4471503,0,3032308,7,888914E-06,3,942,-0,9869535,3,942,0,1087663,3,942,-0,3464408
0,30375,1,107805E-05,3,94875,-0,8580453,3,94875,0,169192,3,94875,-0,4390936,0,30375,7,553216E-06,3,94875,-0,9788967,3,94875,0,1047379,3,94875,-0,3424124
0,3042692,1,05745E-05,3,9555,-0,8499885,3,9555,0,1651637,3,9555,-0,4390936,0,3042692,1,02388E-05,3,9555,-0,9829252,3,9555,0,1127947,3,9555,-0,3383841
0,3047885,9,903106E-06,3,96225,-0,8419318,3,96225,0,1651637,3,96225,-0,4350652,0,3047885,1,208515E-05,3,96225,-0,9788967,3,96225,0,1168231,3,96225,-0,3343557
0,3053077,1,05745E-05,3,969,-0,8379034,3,969,0,1571069,3,969,-0,443122,0,3053077,1,208515E-05,3,969,-0,9788967,3,969,0,1087663,3,969,-0,3343557
0,3058269,1,12459E-05,3,97575,-0,833875,3,97575,0,169192,3,97575,-0,4511787,0,3058269,1,05745E-05,3,97575,-0,9829252,3,97575,0,1087663,3,97575,-0,3303273
0,3063461,9,903106E-06,3,9825,-0,8419318,3,9825,0,169192,3,9825,-0,4632639,0,3063461,6,881819E-06,3,9825,-0,9869535,3,9825,0,1127947,3,9825,-0,3262989
0,3068654,9,567407E-06,3,98925,-0,8419318,3,98925,0,1772488,3,98925,-0,4672923,0,3068654,5,874724E-06,3,98925,-0,9990387,3,98925,0,1127947,3,98925,-0,3343557
0,3073846,1,007095E-05,3,996,-0,8459601,3,996,0,1732204,3,996,-0,4632639,0,3073846,1,05745E-05,3,996,-0,9950103,3,996,0,1127947,3,996,-0,3303273
0,3079039,9,735257E-06,4,00275,-0,8499885,4,00275,0,1812772,4,00275,-0,4672923,0,3079039,1,141375E-05,4,00275,-0,9990387,4,00275,0,1047379,4,00275,-0,3343557
0,3084231,1,225299E-05,4,0095,-0,8499885,4,0095,0,1772488,4,0095,-0,4753491,0,3084231,9,231708E-06,4,0095,-1,003067,4,0095,0,09668116,4,0095,-0,3383841
0,3089423,1,577783E-05,4,01625,-0,8459601,4,01625,0,1772488,4,01625,-0,4592355,0,3089423,9,735257E-06,4,01625,-1,007095,4,01625,0,1047379,4,01625,-0,3383841
0,3094615,1,527428E-05,4,023,-0,8419318,4,023,0,1732204,4,023,-0,4552071,0,3094615,9,231708E-06,4,023,-1,003067,4,023,0,1047379,4,023,-0,3424124
0,3099808,1,342794E-05,4,02975,-0,8379034,4,02975,0,1651637,4,02975,-0,4632639,0,3099808,7,217517E-06,4,02975,-0,9909819,4,02975,0,1007095,4,02975,-0,3383841
0,3105,1,19173E-05,4,0365,-0,833875,4,0365,0,1530785,4,0365,-0,4632639,0,3105,7,049668E-06,4,0365,-0,9748684,4,0365,0,1007095,4,0365,-0,3424124
0,3110192,9,231708E-06,4,04325,-0,8379034,4,04325,0,1530785,4,04325,-0,4592355,0,3110192,8,560311E-06,4,04325,-0,9668117,4,04325,0,1007095,4,04325,-0,3303273
0,3115385,8,560311E-06,4,05,-0,8499885,4,05,0,1490501,4,05,-0,4552071,0,3115385,1,05745E-05,4,05,-0,9668117,4,05,0,09668116,4,05,-0,3343557
0,3120577,8,560311E-06,4,05675,-0,8580453,4,05675,0,1571069,4,05675,-0,4592355,0,3120577,1,040665E-05,4,05675,-0,9587549,4,05675,0,1047379,4,05675,-0,3383841
0,3125769,8,560311E-06,4,0635,-0,8701304,4,0635,0,1571069,4,0635,-0,4511787,0,3125769,1,007095E-05,4,0635,-0,97084,4,0635,0,1047379,4,0635,-0,3343557
0,3130962,7,553216E-06,4,07025,-0,8701304,4,07025,0,1651637,4,07025,-0,4471503,0,3130962,8,89601E-06,4,07025,-0,9869535,4,07025,0,1047379,4,07025,-0,3424124
0,3136154,8,224613E-06,4,077,-0,866102,4,077,0,1772488,4,077,-0,443122,0,3136154,7,553216E-06,4,077,-1,003067,4,077,0,1087663,4,077,-0,3383841
0,3141346,9,231708E-06,4,08375,-0,8580453,4,08375,0,1772488,4,08375,-0,4471503,0,3141346,6,54612E-06,4,08375,-1,015152,4,08375,0,1168231,4,08375,-0,3303273
0,3146538,9,903106E-06,4,0905,-0,8419318,4,0905,0,1772488,4,0905,-0,4592355,0,3146538,6,378271E-06,4,0905,-1,015152,4,0905,0,1127947,4,0905,-0,3262989
0,3151731,1,05745E-05,4,09725,-0,8298466,4,09725,0,1812772,4,09725,-0,4592355,0,3151731,8,728161E-06,4,09725,-1,011124,4,09725,0,1087663,4,09725,-0,3182422
0,3156923,1,040665E-05,4,104,-0,8298466,4,104,0,1853056,4,104,-0,4471503,0,3156923,1,376364E-05,4,104,-1,003067,4,104,0,1087663,4,104,-0,3142138
0,3162116,1,09102E-05,4,11075,-0,833875,4,11075,0,1853056,4,11075,-0,4390936,0,3162116,1,393149E-05,4,11075,-0,9909819,4,11075,0,1087663,4,11075,-0,3021286
0,3167308,1,05745E-05,4,1175,-0,833875,4,1175,0,1812772,4,1175,-0,443122,0,3167308,8,224613E-06,4,1175,-0,9788967,4,1175,0,0886244,4,1175,-0,306157
0,31725,1,007095E-05,4,12425,-0,833875,4,12425,0,1812772,4,12425,-0,4471503,0,31725,6,54612E-06,4,12425,-0,9668117,4,12425,0,08056764,4,12425,-0,306157
0,3177692,1,107805E-05,4,131,-0,8459601,4,131,0,169192,4,131,-0,4471503,0,3177692,9,063859E-06,4,131,-0,9587549,4,131,0,08056764,4,131,-0,3142138
0,3182885,1,12459E-05,4,13775,-0,8499885,4,13775,0,1651637,4,13775,-0,4511787,0,3182885,1,05745E-05,4,13775,-0,9627832,4,13775,0,08056764,4,13775,-0,3142138
0,3188077,1,12459E-05,4,1445,-0,8499885,4,1445,0,1571069,4,1445,-0,4552071,0,3188077,9,735257E-06,4,1445,-0,9748684,4,1445,0,08056764,4,1445,-0,3262989
0,3193269,1,326009E-05,4,15125,-0,8499885,4,15125,0,1571069,4,15125,-0,4511787,0,3193269,9,231708E-06,4,15125,-0,9748684,4,15125,0,0886244,4,15125,-0,3262989
0,3198462,1,443503E-05,4,158,-0,8459601,4,158,0,1530785,4,158,-0,4552071,0,3198462,1,225299E-05,4,158,-0,9748684,4,158,0,0886244,4,158,-0,3343557
0,3203654,1,309224E-05,4,16475,-0,8379034,4,16475,0,1490501,4,16475,-0,4471503,0,3203654,1,527428E-05,4,16475,-0,97084,4,16475,0,1007095,4,16475,-0,3504692
0,3208846,1,19173E-05,4,1715,-0,8459601,4,1715,0,136965,4,1715,-0,4552071,0,3208846,1,326009E-05,4,1715,-0,9788967,4,1715,0,1127947,4,1715,-0,358526
0,3214039,1,02388E-05,4,17825,-0,8540169,4,17825,0,1289082,4,17825,-0,4672923,0,3214039,1,19173E-05,4,17825,-0,9788967,4,17825,0,1168231,4,17825,-0,3625543
0,3219231,1,05745E-05,4,185,-0,8620737,4,185,0,136965,4,185,-0,4793774,0,3219231,1,05745E-05,4,185,-0,9869535,4,185,0,1168231,4,185,-0,3625543
0,3224423,1,275654E-05,4,19175,-0,8620737,4,19175,0,1571069,4,19175,-0,4713207,0,3224423,8,560311E-06,4,19175,-0,9950103,4,19175,0,1208515,4,19175,-0,3464408
0,3229615,1,15816E-05,4,1985,-0,8580453,4,1985,0,169192,4,1985,-0,4672923,0,3229615,9,231708E-06,4,1985,-1,003067,4,1985,0,1208515,4,1985,-0,3383841
0,3234808,9,231708E-06,4,20525,-0,8540169,4,20525,0,1772488,4,20525,-0,4592355,0,3234808,9,903106E-06,4,20525,-0,9950103,4,20525,0,1208515,4,20525,-0,3262989
0,324,8,89601E-06,4,212,-0,8379034,4,212,0,1772488,4,212,-0,4552071,0,324,1,02388E-05,4,212,-0,9869535,4,212,0,1248798,4,212,-0,3262989
0,3245192,8,224613E-06,4,21875,-0,833875,4,21875,0,1853056,4,21875,-0,4511787,0,3245192,9,567407E-06,4,21875,-0,9869535,4,21875,0,1168231,4,21875,-0,3303273
0,3250385,8,89601E-06,4,2255,-0,8298466,4,2255,0,1973907,4,2255,-0,443122,0,3250385,8,560311E-06,4,2255,-0,9829252,4,2255,0,1127947,4,2255,-0,3383841
0,3255577,9,735257E-06,4,23225,-0,8298466,4,23225,0,1973907,4,23225,-0,4511787,0,3255577,1,309224E-05,4,23225,-0,9788967,4,23225,0,1127947,4,23225,-0,3343557
0,3260769,1,05745E-05,4,239,-0,833875,4,239,0,1893339,4,239,-0,4552071,0,3260769,1,594568E-05,4,239,-0,9788967,4,239,0,1168231,4,239,-0,3383841
0,3265962,1,15816E-05,4,24575,-0,8379034,4,24575,0,1772488,4,24575,-0,4552071,0,3265962,1,510643E-05,4,24575,-0,97084,4,24575,0,1208515,4,24575,-0,3383841
0,3271154,1,19173E-05,4,2525,-0,8459601,4,2525,0,1651637,4,2525,-0,4511787,0,3271154,1,376364E-05,4,2525,-0,97084,4,2525,0,1248798,4,2525,-0,3383841
0,3276346,1,12459E-05,4,25925,-0,8499885,4,25925,0,1530785,4,25925,-0,4552071,0,3276346,1,393149E-05,4,25925,-0,97084,4,25925,0,1208515,4,25925,-0,3383841
0,3281538,1,141375E-05,4,266,-0,8499885,4,266,0,1450217,4,266,-0,4552071,0,3281538,1,359579E-05,4,266,-0,97084,4,266,0,1248798,4,266,-0,3424124
0,3286731,1,258869E-05,4,27275,-0,8499885,4,27275,0,1450217,4,27275,-0,4672923,0,3286731,1,05745E-05,4,27275,-0,9748684,4,27275,0,1208515,4,27275,-0,3424124
0,3291923,1,292439E-05,4,2795,-0,8499885,4,2795,0,1409934,4,2795,-0,4753491,0,3291923,8,224613E-06,4,2795,-0,9829252,4,2795,0,1127947,4,2795,-0,3464408
0,3297116,1,460288E-05,4,28625,-0,8459601,4,28625,0,1450217,4,28625,-0,4753491,0,3297116,5,539025E-06,4,28625,-0,9829252,4,28625,0,1047379,4,28625,-0,3424124
0,3302308,1,628138E-05,4,293,-0,8499885,4,293,0,1409934,4,293,-0,4713207,0,3302308,3,860533E-06,4,293,-0,9909819,4,293,0,09668116,4,293,-0,3424124
0,33075,1,560998E-05,4,29975,-0,8419318,4,29975,0,1530785,4,29975,-0,4592355,0,33075,4,867628E-06,4,29975,-0,9990387,4,29975,0,09265278,4,29975,-0,3424124
0,3312692,1,292439E-05,4,3065,-0,8379034,4,3065,0,1611353,4,3065,-0,4672923,0,3312692,7,217517E-06,4,3065,-0,9909819,4,3065,0,08056764,4,3065,-0,3504692
0,3317885,1,040665E-05,4,31325,-0,8379034,4,31325,0,169192,4,31325,-0,4753491,0,3317885,1,09102E-05,4,31325,-0,9829252,4,31325,0,08056764,4,31325,-0,3424124
0,3323077,1,05745E-05,4,32,-0,8379034,4,32,0,169192,4,32,-0,4753491,0,3323077,1,309224E-05,4,32,-0,9869535,4,32,0,08459602,4,32,-0,3424124
0,3328269,1,258869E-05,4,32675,-0,8459601,4,32675,0,1732204,4,32675,-0,4632639,0,3328269,1,359579E-05,4,32675,-0,9869535,4,32675,0,0886244,4,32675,-0,3424124
0,3333462,1,258869E-05,4,3335,-0,8459601,4,3335,0,1732204,4,3335,-0,4511787,0,3333462,1,02388E-05,4,3335,-0,9829252,4,3335,0,09265278,4,3335,-0,3343557
0,3338654,9,231708E-06,4,34025,-0,8499885,4,34025,0,1772488,4,34025,-0,4471503,0,3338654,8,056764E-06,4,34025,-0,9869535,4,34025,0,0886244,4,34025,-0,3303273
0,3343846,7,385367E-06,4,347,-0,8540169,4,347,0,1812772,4,347,-0,4471503,0,3343846,1,007095E-05,4,347,-0,9909819,4,347,0,0886244,4,347,-0,3262989
0,3349038,7,888914E-06,4,35375,-0,8459601,4,35375,0,1853056,4,35375,-0,4552071,0,3349038,1,225299E-05,4,35375,-0,9950103,4,35375,0,09668116,4,35375,-0,3222705
0,3354231,9,231708E-06,4,3605,-0,8499885,4,3605,0,1732204,4,3605,-0,4632639,0,3354231,1,107805E-05,4,3605,-0,9950103,4,3605,0,1047379,4,3605,-0,3182422
0,3359423,9,231708E-06,4,36725,-0,8419318,4,36725,0,1772488,4,36725,-0,4592355,0,3359423,9,231708E-06,4,36725,-0,9950103,4,36725,0,1047379,4,36725,-0,3182422
0,3364615,1,02388E-05,4,374,-0,8419318,4,374,0,1732204,4,374,-0,4632639,0,3364615,1,007095E-05,4,374,-0,9950103,4,374,0,1047379,4,374,-0,3262989
0,3369808,1,09102E-05,4,38075,-0,833875,4,38075,0,1651637,4,38075,-0,4632639,0,3369808,8,560311E-06,4,38075,-0,9950103,4,38075,0,1087663,4,38075,-0,3262989
0,3375,9,567407E-06,4,3875,-0,8379034,4,3875,0,1611353,4,3875,-0,4592355,0,3375,7,049668E-06,4,3875,-0,9869535,4,3875,0,1127947,4,3875,-0,3303273
0,3380192,8,224613E-06,4,39425,-0,833875,4,39425,0,1571069,4,39425,-0,4632639,0,3380192,7,385367E-06,4,39425,-0,9788967,4,39425,0,1127947,4,39425,-0,3383841
0,3385385,1,05745E-05,4,401,-0,8298466,4,401,0,1651637,4,401,-0,4552071,0,3385385,6,54612E-06,4,401,-0,9748684,4,401,0,1087663,4,401,-0,3424124
0,3390577,1,15816E-05,4,40775,-0,8298466,4,40775,0,1651637,4,40775,-0,4552071,0,3390577,6,54612E-06,4,40775,-0,9668117,4,40775,0,1087663,4,40775,-0,3464408
0,3395769,1,107805E-05,4,4145,-0,8379034,4,4145,0,1571069,4,4145,-0,4511787,0,3395769,7,721065E-06,4,4145,-0,97084,4,4145,0,1007095,4,4145,-0,3464408
0,3400961,1,258869E-05,4,42125,-0,8419318,4,42125,0,1611353,4,42125,-0,4511787,0,3400961,7,888914E-06,4,42125,-0,9748684,4,42125,0,1007095,4,42125,-0,3303273
0,3406154,1,393149E-05,4,428,-0,8379034,4,428,0,169192,4,428,-0,4511787,0,3406154,7,385367E-06,4,428,-0,9788967,4,428,0,09668116,4,428,-0,3222705
0,3411346,1,594568E-05,4,43475,-0,8499885,4,43475,0,1853056,4,43475,-0,4511787,0,3411346,3,692683E-06,4,43475,-0,9869535,4,43475,0,1047379,4,43475,-0,3182422
0,3416539,1,594568E-05,4,4415,-0,8459601,4,4415,0,1893339,4,4415,-0,4511787,0,3416539,8,392462E-07,4,4415,-0,9950103,4,4415,0,1007095,4,4415,-0,3142138
0,3421731,1,326009E-05,4,44825,-0,8379034,4,44825,0,1933623,4,44825,-0,4471503,0,3421731,3,189135E-06,4,44825,-0,9990387,4,44825,0,09265278,4,44825,-0,3182422
0,3426923,1,326009E-05,4,455,-0,833875,4,455,0,1933623,4,455,-0,443122,0,3426923,5,203327E-06,4,455,-0,9990387,4,455,0,1007095,4,455,-0,3222705
0,3432115,1,594568E-05,4,46175,-0,833875,4,46175,0,1933623,4,46175,-0,443122,0,3432115,5,035477E-06,4,46175,-0,9990387,4,46175,0,09668116,4,46175,-0,3343557
0,3437308,1,493858E-05,4,4685,-0,8379034,4,4685,0,1893339,4,4685,-0,4511787,0,3437308,4,699778E-06,4,4685,-0,9990387,4,4685,0,1007095,4,4685,-0,3383841
0,34425,1,258869E-05,4,47525,-0,8499885,4,47525,0,1853056,4,47525,-0,4632639,0,34425,5,539025E-06,4,47525,-1,003067,4,47525,0,09668116,4,47525,-0,3343557
0,3447692,1,225299E-05,4,482,-0,8580453,4,482,0,169192,4,482,-0,4672923,0,3447692,6,881819E-06,4,482,-0,9990387,4,482,0,1047379,4,482,-0,3424124
0,3452885,1,19173E-05,4,48875,-0,8620737,4,48875,0,1571069,4,48875,-0,4753491,0,3452885,7,385367E-06,4,48875,-0,9990387,4,48875,0,1127947,4,48875,-0,3303273
0,3458077,1,326009E-05,4,4955,-0,8620737,4,4955,0,1530785,4,4955,-0,4753491,0,3458077,6,54612E-06,4,4955,-0,9950103,4,4955,0,1127947,4,4955,-0,3262989
0,3463269,1,426719E-05,4,50225,-0,8580453,4,50225,0,1530785,4,50225,-0,4672923,0,3463269,5,706875E-06,4,50225,-0,9950103,4,50225,0,1168231,4,50225,-0,3303273
0,3468462,1,460288E-05,4,509,-0,8459601,4,509,0,1530785,4,509,-0,4552071,0,3468462,4,867628E-06,4,509,-0,9950103,4,509,0,1047379,4,509,-0,3303273
0,3473654,1,393149E-05,4,51575,-0,8419318,4,51575,0,1611353,4,51575,-0,4511787,0,3473654,6,210422E-06,4,51575,-0,9829252,4,51575,0,1127947,4,51575,-0,3343557
0,3478846,1,292439E-05,4,5225,-0,8379034,4,5225,0,1611353,4,5225,-0,443122,0,3478846,6,881819E-06,4,5225,-0,9829252,4,5225,0,1007095,4,5225,-0,3262989
0,3484038,1,007095E-05,4,52925,-0,8379034,4,52925,0,1571069,4,52925,-0,4471503,0,3484038,7,888914E-06,4,52925,-0,9788967,4,52925,0,1007095,4,52925,-0,3303273
0,3489231,7,888914E-06,4,536,-0,833875,4,536,0,1611353,4,536,-0,4471503,0,3489231,1,007095E-05,4,536,-0,97084,4,536,0,09668116,4,536,-0,3182422
0,3494423,8,89601E-06,4,54275,-0,833875,4,54275,0,1732204,4,54275,-0,4511787,0,3494423,1,15816E-05,4,54275,-0,97084,4,54275,0,09668116,4,54275,-0,3222705
0,3499615,1,02388E-05,4,5495,-0,833875,4,5495,0,1893339,4,5495,-0,4592355,0,3499615,1,05745E-05,4,5495,-0,9748684,4,5495,0,09668116,4,5495,-0,3222705
0,3504808,8,224613E-06,4,55625,-0,8419318,4,55625,0,1973907,4,55625,-0,4592355,0,3504808,8,560311E-06,4,55625,-0,9788967,4,55625,0,1007095,4,55625,-0,3262989
0,351,5,203327E-06,4,563,-0,8419318,4,563,0,2014191,4,563,-0,4592355,0,351,6,210422E-06,4,563,-0,9869535,4,563,0,09668116,4,563,-0,3262989
0,3515192,2,517739E-06,4,56975,-0,8499885,4,56975,0,1973907,4,56975,-0,4592355,0,3515192,6,881819E-06,4,56975,-0,9950103,4,56975,0,1007095,4,56975,-0,3262989
0,3520385,2,349889E-06,4,5765,-0,8540169,4,5765,0,1933623,4,5765,-0,4552071,0,3520385,7,888914E-06,4,5765,-0,9950103,4,5765,0,1047379,4,5765,-0,3262989
0,3525577,4,867628E-06,4,58325,-0,8540169,4,58325,0,1812772,4,58325,-0,4511787,0,3525577,8,560311E-06,4,58325,-1,003067,4,58325,0,1087663,4,58325,-0,3222705
0,3530769,6,54612E-06,4,59,-0,8459601,4,59,0,1611353,4,59,-0,4511787,0,3530769,7,888914E-06,4,59,-0,9990387,4,59,0,1087663,4,59,-0,3383841
0,3535962,8,89601E-06,4,59675,-0,8419318,4,59675,0,1450217,4,59675,-0,4511787,0,3535962,7,217517E-06,4,59675,-0,9909819,4,59675,0,1087663,4,59675,-0,3343557
0,3541154,1,05745E-05,4,6035,-0,8419318,4,6035,0,1409934,4,6035,-0,4552071,0,3541154,7,888914E-06,4,6035,-0,9869535,4,6035,0,1047379,4,6035,-0,3383841
0,3546346,1,12459E-05,4,61025,-0,8419318,4,61025,0,1450217,4,61025,-0,4552071,0,3546346,7,888914E-06,4,61025,-0,9788967,4,61025,0,1007095,4,61025,-0,3343557
0,3551539,9,903106E-06,4,617,-0,8419318,4,617,0,1571069,4,617,-0,4592355,0,3551539,6,378271E-06,4,617,-0,9748684,4,617,0,09668116,4,617,-0,3303273
0,3556731,7,049668E-06,4,62375,-0,8379034,4,62375,0,1651637,4,62375,-0,4552071,0,3556731,7,049668E-06,4,62375,-0,9748684,4,62375,0,09668116,4,62375,-0,3303273
0,3561923,6,378271E-06,4,6305,-0,8419318,4,6305,0,1651637,4,6305,-0,4552071,0,3561923,8,560311E-06,4,6305,-0,9788967,4,6305,0,09265278,4,6305,-0,3383841
0,3567115,8,560311E-06,4,63725,-0,8459601,4,63725,0,1651637,4,63725,-0,4592355,0,3567115,9,735257E-06,4,63725,-0,9829252,4,63725,0,09668116,4,63725,-0,3343557
0,3572308,1,05745E-05,4,644,-0,8459601,4,644,0,169192,4,644,-0,4713207,0,3572308,1,19173E-05,4,644,-0,9909819,4,644,0,09668116,4,644,-0,3464408
0,35775,9,903106E-06,4,65075,-0,8459601,4,65075,0,1732204,4,65075,-0,4753491,0,35775,1,326009E-05,4,65075,-0,9909819,4,65075,0,09668116,4,65075,-0,3424124
0,3582692,9,063859E-06,4,6575,-0,8459601,4,6575,0,169192,4,6575,-0,4793774,0,3582692,1,05745E-05,4,6575,-0,9950103,4,6575,0,09668116,4,6575,-0,3424124
0,3587885,8,89601E-06,4,66425,-0,8499885,4,66425,0,1772488,4,66425,-0,4672923,0,3587885,7,888914E-06,4,66425,-0,9869535,4,66425,0,1087663,4,66425,-0,3343557
0,3593077,8,560311E-06,4,671,-0,8499885,4,671,0,1933623,4,671,-0,4552071,0,3593077,7,721065E-06,4,671,-0,9909819,4,671,0,1087663,4,671,-0,3303273
0,3598269,9,903106E-06,4,67775,-0,8459601,4,67775,0,2014191,4,67775,-0,4471503,0,3598269,8,560311E-06,4,67775,-0,9829252,4,67775,0,1087663,4,67775,-0,3262989
0,3603462,1,258869E-05,4,6845,-0,8459601,4,6845,0,2014191,4,6845,-0,443122,0,3603462,1,02388E-05,4,6845,-0,9829252,4,6845,0,1087663,4,6845,-0,3303273
0,3608654,1,258869E-05,4,69125,-0,8419318,4,69125,0,1893339,4,69125,-0,4390936,0,3608654,8,560311E-06,4,69125,-0,9829252,4,69125,0,1047379,4,69125,-0,3303273
0,3613846,1,275654E-05,4,698,-0,8379034,4,698,0,1772488,4,698,-0,4390936,0,3613846,5,874724E-06,4,698,-0,9829252,4,698,0,1087663,4,698,-0,3262989
0,3619038,1,258869E-05,4,70475,-0,833875,4,70475,0,1571069,4,70475,-0,4471503,0,3619038,5,539025E-06,4,70475,-0,9869535,4,70475,0,1087663,4,70475,-0,3262989
0,3624231,1,107805E-05,4,7115,-0,8379034,4,7115,0,1409934,4,7115,-0,4511787,0,3624231,7,049668E-06,4,7115,-0,9869535,4,7115,0,1087663,4,7115,-0,3303273
0,3629423,9,567407E-06,4,71825,-0,8419318,4,71825,0,1329366,4,71825,-0,4552071,0,3629423,7,553216E-06,4,71825,-0,9869535,4,71825,0,1047379,4,71825,-0,3303273
0,3634616,9,567407E-06,4,725,-0,8459601,4,725,0,1329366,4,725,-0,4632639,0,3634616,8,560311E-06,4,725,-0,9869535,4,725,0,1047379,4,725,-0,3343557
0,3639808,1,040665E-05,4,73175,-0,8499885,4,73175,0,136965,4,73175,-0,4632639,0,3639808,6,881819E-06,4,73175,-0,9869535,4,73175,0,1047379,4,73175,-0,3424124
0,3645,1,292439E-05,4,7385,-0,8499885,4,7385,0,1490501,4,7385,-0,4713207,0,3645,3,524834E-06,4,7385,-0,9909819,4,7385,0,09668116,4,7385,-0,3383841
0,3650192,1,409934E-05,4,74525,-0,8540169,4,74525,0,1651637,4,74525,-0,4632639,0,3650192,4,531929E-06,4,74525,-0,9950103,4,74525,0,09265278,4,74525,-0,3303273
0,3655385,1,443503E-05,4,752,-0,8540169,4,752,0,1893339,4,752,-0,4552071,0,3655385,5,706875E-06,4,752,-0,9909819,4,752,0,08459602,4,752,-0,3343557
0,3660577,1,393149E-05,4,75875,-0,8419318,4,75875,0,2014191,4,75875,-0,4471503,0,3660577,5,874724E-06,4,75875,-0,9909819,4,75875,0,09265278,4,75875,-0,3262989
0,3665769,1,242084E-05,4,7655,-0,8419318,4,7655,0,2054475,4,7655,-0,4471503,0,3665769,8,728161E-06,4,7655,-0,9909819,4,7655,0,09265278,4,7655,-0,3303273
0,3670962,1,12459E-05,4,77225,-0,833875,4,77225,0,1973907,4,77225,-0,4511787,0,3670962,7,721065E-06,4,77225,-0,9869535,4,77225,0,09668116,4,77225,-0,3303273
0,3676154,1,174945E-05,4,779,-0,8298466,4,779,0,1732204,4,779,-0,4592355,0,3676154,5,706875E-06,4,779,-0,9829252,4,779,0,1007095,4,779,-0,3303273
0,3681346,1,258869E-05,4,78575,-0,8379034,4,78575,0,1651637,4,78575,-0,4672923,0,3681346,7,888914E-06,4,78575,-0,9829252,4,78575,0,1087663,4,78575,-0,3383841
0,3686539,1,258869E-05,4,7925,-0,8499885,4,7925,0,1530785,4,7925,-0,4713207,0,3686539,1,19173E-05,4,7925,-0,9909819,4,7925,0,1127947,4,7925,-0,3464408
0,3691731,1,15816E-05,4,79925,-0,8620737,4,79925,0,1409934,4,79925,-0,4713207,0,3691731,1,19173E-05,4,79925,-0,9869535,4,79925,0,1208515,4,79925,-0,3424124
0,3696923,1,107805E-05,4,806,-0,8580453,4,806,0,1409934,4,806,-0,4632639,0,3696923,9,903106E-06,4,806,-0,9829252,4,806,0,1248798,4,806,-0,3424124
0,3702115,1,15816E-05,4,81275,-0,8580453,4,81275,0,1530785,4,81275,-0,4511787,0,3702115,8,560311E-06,4,81275,-0,9788967,4,81275,0,1168231,4,81275,-0,3464408
0,3707308,1,040665E-05,4,8195,-0,8459601,4,8195,0,1571069,4,8195,-0,4511787,0,3707308,8,560311E-06,4,8195,-0,97084,4,8195,0,1047379,4,8195,-0,3464408
0,37125,9,735257E-06,4,82625,-0,8419318,4,82625,0,1651637,4,82625,-0,4471503,0,37125,7,721065E-06,4,82625,-0,9788967,4,82625,0,1007095,4,82625,-0,3424124
0,3717692,1,12459E-05,4,833,-0,8419318,4,833,0,1732204,4,833,-0,4592355,0,3717692,8,224613E-06,4,833,-0,9829252,4,833,0,1007095,4,833,-0,3343557
0,3722885,1,02388E-05,4,83975,-0,8499885,4,83975,0,1853056,4,83975,-0,4632639,0,3722885,1,05745E-05,4,83975,-0,9869535,4,83975,0,09265278,4,83975,-0,3262989
0,3728077,5,874724E-06,4,8465,-0,8540169,4,8465,0,1973907,4,8465,-0,4672923,0,3728077,1,007095E-05,4,8465,-0,9909819,4,8465,0,09265278,4,8465,-0,3303273
0,3733269,6,881819E-06,4,85325,-0,8580453,4,85325,0,1973907,4,85325,-0,4592355,0,3733269,7,385367E-06,4,85325,-0,9990387,4,85325,0,0886244,4,85325,-0,3182422
0,3738461,1,02388E-05,4,86,-0,8540169,4,86,0,1893339,4,86,-0,4632639,0,3738461,5,203327E-06,4,86,-1,003067,4,86,0,08459602,4,86,-0,3262989
0,3743654,1,05745E-05,4,86675,-0,8419318,4,86675,0,1772488,4,86675,-0,4552071,0,3743654,5,539025E-06,4,86675,-1,003067,4,86675,0,09265278,4,86675,-0,3222705
0,3748846,9,231708E-06,4,8735,-0,8419318,4,8735,0,169192,4,8735,-0,4592355,0,3748846,7,217517E-06,4,8735,-0,9990387,4,8735,0,0886244,4,8735,-0,3303273
0,3754039,7,888914E-06,4,88025,-0,833875,4,88025,0,1611353,4,88025,-0,4632639,0,3754039,8,89601E-06,4,88025,-0,9950103,4,88025,0,08459602,4,88025,-0,3383841
0,3759231,1,09102E-05,4,887,-0,833875,4,887,0,1530785,4,887,-0,4632639,0,3759231,1,05745E-05,4,887,-0,9950103,4,887,0,08459602,4,887,-0,3343557
0,3764423,1,460288E-05,4,89375,-0,8419318,4,89375,0,1409934,4,89375,-0,4632639,0,3764423,1,174945E-05,4,89375,-0,9869535,4,89375,0,08056764,4,89375,-0,3383841
0,3769615,1,393149E-05,4,9005,-0,8459601,4,9005,0,1450217,4,9005,-0,4511787,0,3769615,9,063859E-06,4,9005,-0,9829252,4,9005,0,08459602,4,9005,-0,3424124
0,3774808,1,174945E-05,4,90725,-0,8499885,4,90725,0,1490501,4,90725,-0,4471503,0,3774808,7,888914E-06,4,90725,-0,9748684,4,90725,0,08459602,4,90725,-0,3383841
0,378,1,258869E-05,4,914,-0,8499885,4,914,0,1651637,4,914,-0,4592355,0,378,6,54612E-06,4,914,-0,9869535,4,914,0,0886244,4,914,-0,3383841
0,3785192,1,443503E-05,4,92075,-0,8459601,4,92075,0,1772488,4,92075,-0,4672923,0,3785192,5,706875E-06,4,92075,-0,9788967,4,92075,0,1007095,4,92075,-0,3383841
0,3790385,1,393149E-05,4,9275,-0,8459601,4,9275,0,1772488,4,9275,-0,4753491,0,3790385,6,71397E-06,4,9275,-0,9829252,4,9275,0,1087663,4,9275,-0,3383841
0,3795577,1,242084E-05,4,93425,-0,8379034,4,93425,0,1772488,4,93425,-0,4753491,0,3795577,7,049668E-06,4,93425,-0,9829252,4,93425,0,1127947,4,93425,-0,3383841
0,3800769,1,15816E-05,4,941,-0,8379034,4,941,0,169192,4,941,-0,4753491,0,3800769,4,36408E-06,4,941,-0,9829252,4,941,0,1208515,4,941,-0,3424124
0,3805962,1,275654E-05,4,94775,-0,8379034,4,94775,0,1732204,4,94775,-0,4632639,0,3805962,2,349889E-06,4,94775,-0,9788967,4,94775,0,1208515,4,94775,-0,3424124
0,3811154,1,409934E-05,4,9545,-0,8419318,4,9545,0,1732204,4,9545,-0,4632639,0,3811154,3,860533E-06,4,9545,-0,9748684,4,9545,0,1127947,4,9545,-0,3504692
0,3816346,1,426719E-05,4,96125,-0,8379034,4,96125,0,1732204,4,96125,-0,4632639,0,3816346,7,217517E-06,4,96125,-0,97084,4,96125,0,1087663,4,96125,-0,3464408
0,3821538,1,225299E-05,4,968,-0,8459601,4,968,0,1651637,4,968,-0,4552071,0,3821538,9,903106E-06,4,968,-0,9788967,4,968,0,1047379,4,968,-0,3544976
0,3826731,1,05745E-05,4,97475,-0,8459601,4,97475,0,1651637,4,97475,-0,4511787,0,3826731,1,09102E-05,4,97475,-0,9869535,4,97475,0,1007095,4,97475,-0,3544976
0,3831923,1,09102E-05,4,9815,-0,8459601,4,9815,0,1651637,4,9815,-0,4552071,0,3831923,8,89601E-06,4,9815,-0,9909819,4,9815,0,1047379,4,9815,-0,358526
0,3837115,1,510643E-05,4,98825,-0,8419318,4,98825,0,169192,4,98825,-0,4672923,0,3837115,7,888914E-06,4,98825,-0,9909819,4,98825,0,1047379,4,98825,-0,3504692
0,3842308,1,661708E-05,4,995,-0,8419318,4,995,0,1571069,4,995,-0,4793774,0,3842308,9,231708E-06,4,995,-0,9909819,4,995,0,1087663,4,995,-0,3464408
0,38475,1,577783E-05,5,00175,-0,8419318,5,00175,0,1490501,5,00175,-0,4793774,0,38475,1,02388E-05,5,00175,-0,9909819,5,00175,0,1087663,5,00175,-0,3424124
0,3852692,1,527428E-05,5,0085,-0,8459601,5,0085,0,1450217,5,0085,-0,4753491,0,3852692,1,19173E-05,5,0085,-0,9950103,5,0085,0,1047379,5,0085,-0,3303273
0,3857885,1,443503E-05,5,01525,-0,8459601,5,01525,0,1530785,5,01525,-0,4713207,0,3857885,1,05745E-05,5,01525,-0,9950103,5,01525,0,1047379,5,01525,-0,3303273
0,3863077,1,426719E-05,5,022,-0,8459601,5,022,0,1530785,5,022,-0,4672923,0,3863077,9,735257E-06,5,022,-0,9869535,5,022,0,1007095,5,022,-0,3262989
0,3868269,1,477073E-05,5,02875,-0,8459601,5,02875,0,169192,5,02875,-0,4672923,0,3868269,9,903106E-06,5,02875,-0,9788967,5,02875,0,09668116,5,02875,-0,3383841
0,3873461,1,409934E-05,5,0355,-0,8499885,5,0355,0,1772488,5,0355,-0,4672923,0,3873461,8,560311E-06,5,0355,-0,9829252,5,0355,0,0886244,5,0355,-0,358526
0,3878654,1,359579E-05,5,04225,-0,8459601,5,04225,0,1772488,5,04225,-0,4632639,0,3878654,7,721065E-06,5,04225,-0,9829252,5,04225,0,09668116,5,04225,-0,3625543
0,3883846,1,258869E-05,5,049,-0,8419318,5,049,0,169192,5,049,-0,4592355,0,3883846,8,560311E-06,5,049,-0,9829252,5,049,0,09668116,5,049,-0,3544976
0,3889039,1,05745E-05,5,05575,-0,8459601,5,05575,0,1611353,5,05575,-0,4672923,0,3889039,9,231708E-06,5,05575,-0,9829252,5,05575,0,09668116,5,05575,-0,3504692
0,3894231,1,02388E-05,5,0625,-0,8459601,5,0625,0,1530785,5,0625,-0,4753491,0,3894231,9,567407E-06,5,0625,-0,9829252,5,0625,0,09668116,5,0625,-0,3464408
0,3899423,1,376364E-05,5,06925,-0,8459601,5,06925,0,1571069,5,06925,-0,4672923,0,3899423,1,02388E-05,5,06925,-0,9829252,5,06925,0,09668116,5,06925,-0,3383841
0,3904615,1,661708E-05,5,076,-0,8459601,5,076,0,169192,5,076,-0,4672923,0,3904615,1,12459E-05,5,076,-0,9869535,5,076,0,09265278,5,076,-0,3303273
0,3909808,1,594568E-05,5,08275,-0,8459601,5,08275,0,1732204,5,08275,-0,4592355,0,3909808,9,735257E-06,5,08275,-0,9869535,5,08275,0,09668116,5,08275,-0,3262989
0,3915,1,577783E-05,5,0895,-0,8419318,5,0895,0,1772488,5,0895,-0,4592355,0,3915,8,392462E-06,5,0895,-0,9869535,5,0895,0,1007095,5,0895,-0,3303273
0,3920192,1,594568E-05,5,09625,-0,8419318,5,09625,0,1812772,5,09625,-0,4632639,0,3920192,1,02388E-05,5,09625,-0,9869535,5,09625,0,1047379,5,09625,-0,3303273
0,3925385,1,628138E-05,5,103,-0,8459601,5,103,0,1732204,5,103,-0,4713207,0,3925385,1,359579E-05,5,103,-0,9909819,5,103,0,1007095,5,103,-0,3383841
0,3930577,1,527428E-05,5,10975,-0,8499885,5,10975,0,1732204,5,10975,-0,4632639,0,3930577,1,376364E-05,5,10975,-0,9869535,5,10975,0,1007095,5,10975,-0,3383841
0,3935769,1,326009E-05,5,1165,-0,8499885,5,1165,0,1571069,5,1165,-0,4672923,0,3935769,9,567407E-06,5,1165,-0,9950103,5,1165,0,09668116,5,1165,-0,3504692
0,3940962,1,426719E-05,5,12325,-0,8499885,5,12325,0,1530785,5,12325,-0,4793774,0,3940962,6,54612E-06,5,12325,-0,9950103,5,12325,0,09265278,5,12325,-0,3504692
0,3946154,1,577783E-05,5,13,-0,8540169,5,13,0,1530785,5,13,-0,4834058,0,3946154,7,049668E-06,5,13,-0,9950103,5,13,0,09265278,5,13,-0,3544976
0,3951346,1,510643E-05,5,13675,-0,8540169,5,13675,0,1571069,5,13675,-0,4713207,0,3951346,7,721065E-06,5,13675,-0,9909819,5,13675,0,09668116,5,13675,-0,3544976
0,3956538,1,225299E-05,5,1435,-0,8540169,5,1435,0,1611353,5,1435,-0,4713207,0,3956538,8,560311E-06,5,1435,-0,9950103,5,1435,0,1007095,5,1435,-0,358526
0,3961731,1,05745E-05,5,15025,-0,8540169,5,15025,0,169192,5,15025,-0,4592355,0,3961731,9,903106E-06,5,15025,-0,9990387,5,15025,0,1047379,5,15025,-0,358526
0,3966923,1,19173E-05,5,157,-0,8580453,5,157,0,169192,5,157,-0,4592355,0,3966923,9,231708E-06,5,157,-0,9829252,5,157,0,1127947,5,157,-0,3544976
0,3972116,1,326009E-05,5,16375,-0,8459601,5,16375,0,1772488,5,16375,-0,4713207,0,3972116,7,217517E-06,5,16375,-0,9788967,5,16375,0,1127947,5,16375,-0,3504692
0,3977308,1,15816E-05,5,1705,-0,8379034,5,1705,0,1732204,5,1705,-0,4672923,0,3977308,6,210422E-06,5,1705,-0,9748684,5,1705,0,1168231,5,1705,-0,3504692
0,39825,8,728161E-06,5,17725,-0,8298466,5,17725,0,169192,5,17725,-0,4632639,0,39825,7,888914E-06,5,17725,-0,97084,5,17725,0,1208515,5,17725,-0,3424124
0,3987692,9,231708E-06,5,184,-0,8298466,5,184,0,1611353,5,184,-0,4592355,0,3987692,8,89601E-06,5,184,-0,97084,5,184,0,1127947,5,184,-0,3424124
0,3992885,9,735257E-06,5,19075,-0,8258182,5,19075,0,1611353,5,19075,-0,4632639,0,3992885,9,063859E-06,5,19075,-0,9668117,5,19075,0,1047379,5,19075,-0,3383841
0,3998077,8,560311E-06,5,1975,-0,8298466,5,1975,0,1530785,5,1975,-0,4672923,0,3998077,8,728161E-06,5,1975,-0,9748684,5,1975,0,1047379,5,1975,-0,3424124
0,4003269,9,567407E-06,5,20425,-0,833875,5,20425,0,1611353,5,20425,-0,4713207,0,4003269,9,231708E-06,5,20425,-0,9869535,5,20425,0,0886244,5,20425,-0,3383841
0,4008462,1,225299E-05,5,211,-0,8459601,5,211,0,1530785,5,211,-0,4713207,0,4008462,9,735257E-06,5,211,-0,9950103,5,211,0,08459602,5,211,-0,3424124
0,4013654,1,393149E-05,5,21775,-0,8580453,5,21775,0,1571069,5,21775,-0,4672923,0,4013654,8,89601E-06,5,21775,-0,9990387,5,21775,0,08459602,5,21775,-0,3504692
0,4018846,1,15816E-05,5,2245,-0,8620737,5,2245,0,1732204,5,2245,-0,4713207,0,4018846,8,224613E-06,5,2245,-1,003067,5,2245,0,0886244,5,2245,-0,3464408
0,4024039,8,728161E-06,5,23125,-0,8580453,5,23125,0,1853056,5,23125,-0,4793774,0,4024039,1,040665E-05,5,23125,-1,011124,5,23125,0,09265278,5,23125,-0,358526
0,4029231,8,560311E-06,5,238,-0,8620737,5,238,0,1853056,5,238,-0,4793774,0,4029231,1,208515E-05,5,238,-1,007095,5,238,0,09668116,5,238,-0,3504692
0,4034423,1,05745E-05,5,24475,-0,8580453,5,24475,0,1772488,5,24475,-0,4713207,0,4034423,8,560311E-06,5,24475,-1,003067,5,24475,0,1007095,5,24475,-0,3424124
0,4039615,1,19173E-05,5,2515,-0,8459601,5,2515,0,1732204,5,2515,-0,4672923,0,4039615,3,524834E-06,5,2515,-0,9909819,5,2515,0,1007095,5,2515,-0,3464408
0,4044808,1,15816E-05,5,25825,-0,8459601,5,25825,0,1571069,5,25825,-0,4592355,0,4044808,0,5,25825,-0,9788967,5,25825,0,1007095,5,25825,-0,3424124
0,405,9,735257E-06,5,265,-0,833875,5,265,0,1490501,5,265,-0,4592355,0,405,-5,035478E-07,5,265,-0,97084,5,265,0,09668116,5,265,-0,3464408
0,4055192,9,231708E-06,5,27175,-0,833875,5,27175,0,1450217,5,27175,-0,4672923,0,4055192,1,846342E-06,5,27175,-0,97084,5,27175,0,09668116,5,27175,-0,3464408
0,4060385,1,12459E-05,5,2785,-0,8419318,5,2785,0,136965,5,2785,-0,4713207,0,4060385,1,342794E-06,5,2785,-0,9748684,5,2785,0,09668116,5,2785,-0,3504692
0,4065577,1,12459E-05,5,28525,-0,8540169,5,28525,0,1450217,5,28525,-0,4793774,0,4065577,5,035478E-07,5,28525,-0,9829252,5,28525,0,1047379,5,28525,-0,3464408
0,4070769,8,224613E-06,5,292,-0,8580453,5,292,0,1571069,5,292,-0,4753491,0,4070769,2,18204E-06,5,292,-0,9869535,5,292,0,1047379,5,292,-0,3464408
0,4075962,6,54612E-06,5,29875,-0,8540169,5,29875,0,169192,5,29875,-0,4713207,0,4075962,4,028382E-06,5,29875,-0,9869535,5,29875,0,1127947,5,29875,-0,3383841
0,4081154,7,888914E-06,5,3055,-0,8540169,5,3055,0,1772488,5,3055,-0,4592355,0,4081154,3,860533E-06,5,3055,-0,9950103,5,3055,0,1127947,5,3055,-0,3424124
0,4086346,9,903106E-06,5,31225,-0,8499885,5,31225,0,1812772,5,31225,-0,4592355,0,4086346,3,860533E-06,5,31225,-0,9909819,5,31225,0,1168231,5,31225,-0,3303273
0,4091538,9,063859E-06,5,319,-0,8459601,5,319,0,1893339,5,319,-0,4672923,0,4091538,5,874724E-06,5,319,-0,9990387,5,319,0,1087663,5,319,-0,3343557
