Label: R BICEPS BRACHII: EMG 1 Sampling frequency: 1,925926e+003 Number of points: 58682 start: 0,000000e+000 Unit: Volts Domain Unit: s
Label: R BICEPS BRACHII: Acc 1.X Sampling frequency: 1,481481e+002 Number of points: 4514 start: 0,000000e+000 Unit: g Domain Unit: s
Label: R BICEPS BRACHII: Acc 1.Y Sampling frequency: 1,481481e+002 Number of points: 4514 start: 0,000000e+000 Unit: g Domain Unit: s
Label: R BICEPS BRACHII: Acc 1.Z Sampling frequency: 1,481481e+002 Number of points: 4514 start: 0,000000e+000 Unit: g Domain Unit: s
Label: R TRICEPS BRACHII: EMG 2 Sampling frequency: 1,925926e+003 Number of points: 58682 start: 0,000000e+000 Unit: Volts Domain Unit: s
Label: R TRICEPS BRACHII: Acc 2.X Sampling frequency: 1,481481e+002 Number of points: 4514 start: 0,000000e+000 Unit: g Domain Unit: s
Label: R TRICEPS BRACHII: Acc 2.Y Sampling frequency: 1,481481e+002 Number of points: 4514 start: 0,000000e+000 Unit: g Domain Unit: s
Label: R TRICEPS BRACHII: Acc 2.Z Sampling frequency: 1,481481e+002 Number of points: 4514 start: 0,000000e+000 Unit: g Domain Unit: s
Start Trigger Method: None
Stop Trigger Method: None
 
X[s],"R BICEPS BRACHII: EMG 1",X[s],"R BICEPS BRACHII: Acc 1.X",X[s],"R BICEPS BRACHII: Acc 1.Y",X[s],"R BICEPS BRACHII: Acc 1.Z",X[s],"R TRICEPS BRACHII: EMG 2",X[s],"R TRICEPS BRACHII: Acc 2.X",X[s],"R TRICEPS BRACHII: Acc 2.Y",X[s],"R TRICEPS BRACHII: Acc 2.Z"
0.000000,0,0.000000,0,0.000000,0,0.000000,0,0.000000,0,0.000000,0,0.000000,0,0.000000,0
0,0005192308,0,0,00675,0,0,00675,0,0,00675,0,0,0005192308,0,0,00675,0,0,00675,0,0,00675,0
0,001038462,0,0,0135,0,0,0135,0,0,0135,0,0,001038462,0,0,0135,0,0,0135,0,0,0135,0
0,001557692,0,0,02025,0,0,02025,0,0,02025,0,0,001557692,0,0,02025,0,0,02025,0,0,02025,0
0,002076923,0,0,027,0,0,027,0,0,027,0,0,002076923,0,0,027,0,0,027,0,0,027,0
0,002596154,0,0,03375,0,0,03375,0,0,03375,0,0,002596154,0,0,03375,0,0,03375,0,0,03375,0
0,003115385,0,0,0405,0,0,0405,0,0,0405,0,0,003115385,0,0,0405,0,0,0405,0,0,0405,0
0,003634615,0,0,04725,0,0,04725,0,0,04725,0,0,003634615,0,0,04725,0,0,04725,0,0,04725,0
0,004153846,0,0,054,-0,8419318,0,054,0,1329366,0,054,-0,2699016,0,004153846,0,0,054,-0,9547265,0,054,0,2658732,0,054,-0,1409934
0,004673077,0,0,06075,-0,833875,0,06075,0,1329366,0,06075,-0,27393,0,004673077,0,0,06075,-0,9426414,0,06075,0,2537881,0,06075,-0,1450217
0,005192308,0,0,0675,-0,8298466,0,0675,0,1329366,0,0675,-0,2819867,0,005192308,0,0,0675,-0,9386129,0,0675,0,2497597,0,0675,-0,1450217
0,005711539,0,0,07425,-0,833875,0,07425,0,1289082,0,07425,-0,2860151,0,005711539,0,0,07425,-0,9265279,0,07425,0,2537881,0,07425,-0,1450217
0,006230769,0,0,081,-0,8379034,0,081,0,1208515,0,081,-0,2819867,0,006230769,0,0,081,-0,9265279,0,081,0,2537881,0,081,-0,1450217
0,00675,0,0,08775,-0,8379034,0,08775,0,1047379,0,08775,-0,2779583,0,00675,0,0,08775,-0,9224994,0,08775,0,2618448,0,08775,-0,1530785
0,007269231,0,0,0945,-0,8419318,0,0945,0,09668116,0,0945,-0,2699016,0,007269231,0,0,0945,-0,9265279,0,0945,0,2699016,0,0945,-0,1611353
0,007788462,0,0,10125,-0,8419318,0,10125,0,0886244,0,10125,-0,2699016,0,007788462,0,0,10125,-0,9265279,0,10125,0,2819867,0,10125,-0,1732204
0,008307693,0,0,108,-0,8419318,0,108,0,07653925,0,108,-0,2618448,0,008307693,0,0,108,-0,9345846,0,108,0,2900435,0,108,-0,1812772
0,008826924,0,0,11475,-0,8419318,0,11475,0,07251087,0,11475,-0,2618448,0,008826924,0,0,11475,-0,9345846,0,11475,0,2981002,0,11475,-0,1732204
0,009346154,0,0,1215,-0,8499885,0,1215,0,07653925,0,1215,-0,2618448,0,009346154,0,0,1215,-0,9345846,0,1215,0,3142138,0,1215,-0,1812772
0,009865385,0,0,12825,-0,8499885,0,12825,0,07251087,0,12825,-0,2658732,0,009865385,0,0,12825,-0,9345846,0,12825,0,3222705,0,12825,-0,1853056
0,01038462,0,0,135,-0,8459601,0,135,0,07251087,0,135,-0,2658732,0,01038462,0,0,135,-0,9305562,0,135,0,3222705,0,135,-0,1893339
0,01090385,0,0,14175,-0,8419318,0,14175,0,08459602,0,14175,-0,2618448,0,01090385,0,0,14175,-0,9305562,0,14175,0,3182422,0,14175,-0,1893339
0,01142308,0,0,1485,-0,8379034,0,1485,0,08459602,0,1485,-0,27393,0,01142308,0,0,1485,-0,9184711,0,1485,0,3142138,0,1485,-0,1812772
0,01194231,0,0,15525,-0,833875,0,15525,0,09668116,0,15525,-0,2699016,0,01194231,0,0,15525,-0,9184711,0,15525,0,306157,0,15525,-0,1732204
0,01246154,0,0,162,-0,833875,0,162,0,1047379,0,162,-0,2819867,0,01246154,0,0,162,-0,9104142,0,162,0,2981002,0,162,-0,1772488
0,01298077,0,0,16875,-0,833875,0,16875,0,1127947,0,16875,-0,2779583,0,01298077,0,0,16875,-0,9184711,0,16875,0,2940719,0,16875,-0,169192
0,0135,0,0,1755,-0,833875,0,1755,0,1248798,0,1755,-0,2779583,0,0135,0,0,1755,-0,9144427,0,1755,0,2860151,0,1755,-0,1651637
0,01401923,0,0,18225,-0,8379034,0,18225,0,1289082,0,18225,-0,2779583,0,01401923,0,0,18225,-0,9224994,0,18225,0,2779583,0,18225,-0,169192
0,01453846,0,0,189,-0,8419318,0,189,0,1208515,0,189,-0,2779583,0,01453846,0,0,189,-0,9224994,0,189,0,27393,0,189,-0,169192
0,01505769,0,0,19575,-0,8459601,0,19575,0,1208515,0,19575,-0,27393,0,01505769,0,0,19575,-0,9345846,0,19575,0,2779583,0,19575,-0,1611353
0,01557692,0,0,2025,-0,8459601,0,2025,0,1168231,0,2025,-0,27393,0,01557692,0,0,2025,-0,9506981,0,2025,0,27393,0,2025,-0,1651637
0,01609615,0,0,20925,-0,8540169,0,20925,0,1087663,0,20925,-0,27393,0,01609615,0,0,20925,-0,9506981,0,20925,0,2819867,0,20925,-0,169192
0,01661539,0,0,216,-0,8540169,0,216,0,1007095,0,216,-0,2699016,0,01661539,0,0,216,-0,9587549,0,216,0,2900435,0,216,-0,169192
0,01713462,0,0,22275,-0,866102,0,22275,0,09265278,0,22275,-0,2618448,0,01713462,0,0,22275,-0,9547265,0,22275,0,2940719,0,22275,-0,1651637
0,01765385,0,0,2295,-0,866102,0,2295,0,0886244,0,2295,-0,2658732,0,01765385,0,0,2295,-0,9587549,0,2295,0,2981002,0,2295,-0,169192
0,01817308,0,0,23625,-0,866102,0,23625,0,08056764,0,23625,-0,2618448,0,01817308,0,0,23625,-0,9587549,0,23625,0,2981002,0,23625,-0,169192
0,01869231,0,0,243,-0,8701304,0,243,0,07653925,0,243,-0,2658732,0,01869231,0,0,243,-0,9506981,0,243,0,2981002,0,243,-0,1651637
0,01921154,0,0,24975,-0,8701304,0,24975,0,07653925,0,24975,-0,2658732,0,01921154,0,0,24975,-0,9547265,0,24975,0,2981002,0,24975,-0,1651637
0,01973077,0,0,2565,-0,8620737,0,2565,0,07251087,0,2565,-0,2699016,0,01973077,0,0,2565,-0,9506981,0,2565,0,2860151,0,2565,-0,1651637
0,02025,0,0,26325,-0,8540169,0,26325,0,07653925,0,26325,-0,27393,0,02025,0,0,26325,-0,9506981,0,26325,0,27393,0,26325,-0,169192
0,02076923,0,0,27,-0,8499885,0,27,0,0886244,0,27,-0,27393,0,02076923,0,0,27,-0,9466697,0,27,0,2699016,0,27,-0,169192
0,02128846,0,0,27675,-0,8419318,0,27675,0,09668116,0,27675,-0,27393,0,02128846,0,0,27675,-0,9466697,0,27675,0,2699016,0,27675,-0,1651637
0,02180769,0,0,2835,-0,8419318,0,2835,0,1047379,0,2835,-0,2819867,0,02180769,0,0,2835,-0,9466697,0,2835,0,2658732,0,2835,-0,1611353
0,02232692,0,0,29025,-0,8379034,0,29025,0,1168231,0,29025,-0,2779583,0,02232692,0,0,29025,-0,9386129,0,29025,0,2658732,0,29025,-0,1611353
0,02284615,0,0,297,-0,833875,0,297,0,1289082,0,297,-0,2699016,0,02284615,0,0,297,-0,9426414,0,297,0,2618448,0,297,-0,1611353
0,02336538,0,0,30375,-0,8499885,0,30375,0,1289082,0,30375,-0,2658732,0,02336538,0,0,30375,-0,9426414,0,30375,0,2699016,0,30375,-0,1611353
0,02388461,0,0,3105,-0,8499885,0,3105,0,1289082,0,3105,-0,2699016,0,02388461,0,0,3105,-0,9386129,0,3105,0,2779583,0,3105,-0,1651637
0,02440385,0,0,31725,-0,8499885,0,31725,0,1248798,0,31725,-0,2699016,0,02440385,0,0,31725,-0,9466697,0,31725,0,2860151,0,31725,-0,1611353
0,02492308,0,0,324,-0,8540169,0,324,0,1208515,0,324,-0,2658732,0,02492308,0,0,324,-0,9426414,0,324,0,2900435,0,324,-0,1611353
0,02544231,0,0,33075,-0,8499885,0,33075,0,1168231,0,33075,-0,2618448,0,02544231,0,0,33075,-0,9426414,0,33075,0,2940719,0,33075,-0,1530785
0,02596154,0,0,3375,-0,8499885,0,3375,0,1087663,0,3375,-0,2618448,0,02596154,0,0,3375,-0,9345846,0,3375,0,2900435,0,3375,-0,1530785
0,02648077,0,0,34425,-0,8419318,0,34425,0,1047379,0,34425,-0,2578164,0,02648077,0,0,34425,-0,9305562,0,34425,0,2940719,0,34425,-0,1530785
0,027,0,0,351,-0,8499885,0,351,0,09668116,0,351,-0,2578164,0,027,0,0,351,-0,9265279,0,351,0,2900435,0,351,-0,1611353
0,02751923,0,0,35775,-0,8580453,0,35775,0,0886244,0,35775,-0,2578164,0,02751923,0,0,35775,-0,9345846,0,35775,0,3021286,0,35775,-0,1772488
0,02803846,0,0,3645,-0,8620737,0,3645,0,08459602,0,3645,-0,2699016,0,02803846,0,0,3645,-0,9345846,0,3645,0,306157,0,3645,-0,1732204
0,02855769,0,0,37125,-0,8701304,0,37125,0,08459602,0,37125,-0,2699016,0,02855769,0,0,37125,-0,9466697,0,37125,0,3101854,0,37125,-0,1853056
0,02907692,0,0,378,-0,8701304,0,378,0,08056764,0,378,-0,27393,0,02907692,0,0,378,-0,9506981,0,378,0,306157,0,378,-0,1732204
0,02959615,0,0,38475,-0,8701304,0,38475,0,08459602,0,38475,-0,2699016,0,02959615,0,0,38475,-0,9547265,0,38475,0,3142138,0,38475,-0,169192
0,03011538,0,0,3915,-0,866102,0,3915,0,09265278,0,3915,-0,2699016,0,03011538,0,0,3915,-0,9587549,0,3915,0,3142138,0,3915,-0,1571069
0,03063462,0,0,39825,-0,8580453,0,39825,0,1007095,0,39825,-0,2578164,0,03063462,0,0,39825,-0,9587549,0,39825,0,306157,0,39825,-0,1571069
0,03115385,0,0,405,-0,8580453,0,405,0,1007095,0,405,-0,2578164,0,03115385,0,0,405,-0,9587549,0,405,0,2981002,0,405,-0,1490501
0,03167308,0,0,41175,-0,8540169,0,41175,0,1127947,0,41175,-0,2537881,0,03167308,0,0,41175,-0,9547265,0,41175,0,2900435,0,41175,-0,1450217
0,03219231,0,0,4185,-0,8540169,0,4185,0,1248798,0,4185,-0,2537881,0,03219231,0,0,4185,-0,9587549,0,4185,0,2699016,0,4185,-0,1490501
0,03271154,0,0,42525,-0,8580453,0,42525,0,1289082,0,42525,-0,2618448,0,03271154,0,0,42525,-0,9547265,0,42525,0,2699016,0,42525,-0,1409934
0,03323077,0,0,432,-0,8580453,0,432,0,1248798,0,432,-0,2699016,0,03323077,0,0,432,-0,9466697,0,432,0,2618448,0,432,-0,136965
0,03375,0,0,43875,-0,8499885,0,43875,0,1208515,0,43875,-0,2699016,0,03375,0,0,43875,-0,9426414,0,43875,0,27393,0,43875,-0,1409934
0,03426923,0,0,4455,-0,8540169,0,4455,0,1168231,0,4455,-0,2819867,0,03426923,0,0,4455,-0,9426414,0,4455,0,2658732,0,4455,-0,1490501
0,03478846,0,0,45225,-0,8459601,0,45225,0,1127947,0,45225,-0,27393,0,03478846,0,0,45225,-0,9426414,0,45225,0,27393,0,45225,-0,1450217
0,03530769,0,0,459,-0,8419318,0,459,0,1168231,0,459,-0,27393,0,03530769,0,0,459,-0,9386129,0,459,0,27393,0,459,-0,1571069
0,03582693,0,0,46575,-0,8379034,0,46575,0,1047379,0,46575,-0,2699016,0,03582693,0,0,46575,-0,9426414,0,46575,0,2819867,0,46575,-0,1611353
0,03634615,0,0,4725,-0,8379034,0,4725,0,1087663,0,4725,-0,2618448,0,03634615,0,0,4725,-0,9386129,0,4725,0,2860151,0,4725,-0,1772488
0,03686538,0,0,47925,-0,8459601,0,47925,0,1007095,0,47925,-0,2618448,0,03686538,0,0,47925,-0,9426414,0,47925,0,2900435,0,47925,-0,1772488
0,03738461,0,0,486,-0,8499885,0,486,0,09265278,0,486,-0,2618448,0,03738461,0,0,486,-0,9547265,0,486,0,2940719,0,486,-0,1893339
0,03790385,0,0,49275,-0,8540169,0,49275,0,09265278,0,49275,-0,2699016,0,03790385,0,0,49275,-0,9506981,0,49275,0,2981002,0,49275,-0,1853056
0,03842308,0,0,4995,-0,8580453,0,4995,0,08056764,0,4995,-0,2699016,0,03842308,0,0,4995,-0,9547265,0,4995,0,2981002,0,4995,-0,1933623
0,03894231,0,0,50625,-0,8580453,0,50625,0,08459602,0,50625,-0,2658732,0,03894231,0,0,50625,-0,9506981,0,50625,0,3021286,0,50625,-0,1732204
0,03946154,0,0,513,-0,8580453,0,513,0,08056764,0,513,-0,2658732,0,03946154,0,0,513,-0,9426414,0,513,0,3021286,0,513,-0,1732204
0,03998077,0,0,51975,-0,8540169,0,51975,0,08459602,0,51975,-0,2618448,0,03998077,0,0,51975,-0,9386129,0,51975,0,3101854,0,51975,-0,1571069
0,0405,0,0,5265,-0,8580453,0,5265,0,09265278,0,5265,-0,2699016,0,0405,0,0,5265,-0,9426414,0,5265,0,3021286,0,5265,-0,1611353
0,04101923,0,0,53325,-0,8580453,0,53325,0,09668116,0,53325,-0,2618448,0,04101923,0,0,53325,-0,9466697,0,53325,0,2981002,0,53325,-0,1409934
0,04153846,0,0,54,-0,8580453,0,54,0,1047379,0,54,-0,2618448,0,04153846,0,0,54,-0,9466697,0,54,0,2981002,0,54,-0,1450217
0,04205769,0,0,54675,-0,8580453,0,54675,0,1127947,0,54675,-0,2578164,0,04205769,0,0,54675,-0,9386129,0,54675,0,3021286,0,54675,-0,1490501
0,04257692,0,0,5535,-0,8580453,0,5535,0,1087663,0,5535,-0,2578164,0,04257692,0,0,5535,-0,9426414,0,5535,0,2940719,0,5535,-0,1611353
0,04309615,0,0,56025,-0,8499885,0,56025,0,1168231,0,56025,-0,2618448,0,04309615,0,0,56025,-0,9466697,0,56025,0,2900435,0,56025,-0,1651637
0,04361539,0,0,567,-0,8459601,0,567,0,1168231,0,567,-0,2618448,0,04361539,0,0,567,-0,9466697,0,567,0,2819867,0,567,-0,1651637
0,04413462,0,0,57375,-0,8459601,0,57375,0,1168231,0,57375,-0,2658732,0,04413462,0,0,57375,-0,9466697,0,57375,0,27393,0,57375,-0,1651637
0,04465385,0,0,5805,-0,8459601,0,5805,0,1127947,0,5805,-0,2699016,0,04465385,0,0,5805,-0,9466697,0,5805,0,2699016,0,5805,-0,169192
0,04517308,0,0,58725,-0,8499885,0,58725,0,1087663,0,58725,-0,2819867,0,04517308,0,0,58725,-0,9426414,0,58725,0,2658732,0,58725,-0,1651637
0,04569231,0,0,594,-0,8540169,0,594,0,09668116,0,594,-0,2819867,0,04569231,0,0,594,-0,9466697,0,594,0,2699016,0,594,-0,169192
0,04621154,0,0,60075,-0,8499885,0,60075,0,1007095,0,60075,-0,27393,0,04621154,0,0,60075,-0,9466697,0,60075,0,2779583,0,60075,-0,169192
0,04673077,0,0,6075,-0,8540169,0,6075,0,09668116,0,6075,-0,2819867,0,04673077,0,0,6075,-0,9466697,0,6075,0,2819867,0,6075,-0,169192
0,04725,0,0,61425,-0,8540169,0,61425,0,09668116,0,61425,-0,27393,0,04725,0,0,61425,-0,9466697,0,61425,0,2900435,0,61425,-0,169192
0,04776923,0,0,621,-0,8419318,0,621,0,1087663,0,621,-0,27393,0,04776923,0,0,621,-0,9426414,0,621,0,2860151,0,621,-0,1651637
0,04828846,0,0,62775,-0,8419318,0,62775,0,1087663,0,62775,-0,2658732,0,04828846,0,0,62775,-0,9466697,0,62775,0,2819867,0,62775,-0,1571069
0,04880769,0,0,6345,-0,8459601,0,6345,0,1047379,0,6345,-0,2618448,0,04880769,0,0,6345,-0,9466697,0,6345,0,2860151,0,6345,-0,1611353
0,04932692,0,0,64125,-0,8540169,0,64125,0,1087663,0,64125,-0,2537881,0,04932692,0,0,64125,-0,9466697,0,64125,0,2940719,0,64125,-0,1611353
0,04984615,0,0,648,-0,8540169,0,648,0,1047379,0,648,-0,2618448,0,04984615,0,0,648,-0,9466697,0,648,0,2900435,0,648,-0,1571069
0,05036538,0,0,65475,-0,8580453,0,65475,0,1007095,0,65475,-0,2699016,0,05036538,0,0,65475,-0,9466697,0,65475,0,2940719,0,65475,-0,1571069
0,05088462,0,0,6615,-0,8540169,0,6615,0,09668116,0,6615,-0,2699016,0,05088462,0,0,6615,-0,9466697,0,6615,0,2940719,0,6615,-0,1651637
0,05140385,0,0,66825,-0,8499885,0,66825,0,09668116,0,66825,-0,2699016,0,05140385,0,0,66825,-0,9466697,0,66825,0,2981002,0,66825,-0,1611353
0,05192308,0,0,675,-0,8499885,0,675,0,09265278,0,675,-0,27393,0,05192308,0,0,675,-0,9386129,0,675,0,2940719,0,675,-0,1732204
0,05244231,0,0,68175,-0,8499885,0,68175,0,1007095,0,68175,-0,2699016,0,05244231,0,0,68175,-0,9345846,0,68175,0,2940719,0,68175,-0,169192
0,05296154,0,0,6885,-0,8459601,0,6885,0,1007095,0,6885,-0,27393,0,05296154,0,0,6885,-0,9386129,0,6885,0,2981002,0,6885,-0,1772488
0,05348077,0,0,69525,-0,8499885,0,69525,0,1007095,0,69525,-0,2618448,0,05348077,0,0,69525,-0,9426414,0,69525,0,306157,0,69525,-0,169192
0,054,7,888914E-06,0,702,-0,8499885,0,702,0,1047379,0,702,-0,2658732,0,054,1,846342E-06,0,702,-0,9426414,0,702,0,2981002,0,702,-0,1772488
0,05451923,9,567407E-06,0,70875,-0,8499885,0,70875,0,1047379,0,70875,-0,2658732,0,05451923,1,846342E-06,0,70875,-0,9426414,0,70875,0,2940719,0,70875,-0,1651637
0,05503846,9,735257E-06,0,7155,-0,8540169,0,7155,0,1047379,0,7155,-0,2578164,0,05503846,3,356985E-06,0,7155,-0,9466697,0,7155,0,2940719,0,7155,-0,169192
0,05555769,9,399557E-06,0,72225,-0,8499885,0,72225,0,1007095,0,72225,-0,2658732,0,05555769,5,203327E-06,0,72225,-0,9506981,0,72225,0,2981002,0,72225,-0,1571069
0,05607693,8,560311E-06,0,729,-0,8540169,0,729,0,09668116,0,729,-0,2618448,0,05607693,7,888914E-06,0,729,-0,9547265,0,729,0,2940719,0,729,-0,169192
0,05659616,7,888914E-06,0,73575,-0,8540169,0,73575,0,1007095,0,73575,-0,2618448,0,05659616,9,903106E-06,0,73575,-0,9547265,0,73575,0,2981002,0,73575,-0,1611353
0,05711538,8,224613E-06,0,7425,-0,8580453,0,7425,0,09265278,0,7425,-0,2699016,0,05711538,9,567407E-06,0,7425,-0,9547265,0,7425,0,2940719,0,7425,-0,1732204
0,05763461,8,89601E-06,0,74925,-0,866102,0,74925,0,09265278,0,74925,-0,27393,0,05763461,7,888914E-06,0,74925,-0,9587549,0,74925,0,2981002,0,74925,-0,1530785
0,05815385,8,89601E-06,0,756,-0,8741588,0,756,0,09668116,0,756,-0,2779583,0,05815385,6,54612E-06,0,756,-0,9627832,0,756,0,2900435,0,756,-0,1611353
0,05867308,7,721065E-06,0,76275,-0,8781872,0,76275,0,1007095,0,76275,-0,27393,0,05867308,3,189135E-06,0,76275,-0,9627832,0,76275,0,2860151,0,76275,-0,1571069
0,05919231,8,560311E-06,0,7695,-0,8822156,0,7695,0,1047379,0,7695,-0,27393,0,05919231,2,18204E-06,0,7695,-0,97084,0,7695,0,2779583,0,7695,-0,1611353
0,05971154,9,903106E-06,0,77625,-0,8741588,0,77625,0,1087663,0,77625,-0,2658732,0,05971154,6,210422E-06,0,77625,-0,9668117,0,77625,0,2860151,0,77625,-0,1571069
0,06023077,1,040665E-05,0,783,-0,8741588,0,783,0,1208515,0,783,-0,2578164,0,06023077,7,888914E-06,0,783,-0,9668117,0,783,0,27393,0,783,-0,1530785
0,06075,1,19173E-05,0,78975,-0,8620737,0,78975,0,1248798,0,78975,-0,2457313,0,06075,7,721065E-06,0,78975,-0,9668117,0,78975,0,2699016,0,78975,-0,1530785
0,06126923,1,15816E-05,0,7965,-0,8620737,0,7965,0,1168231,0,7965,-0,2457313,0,06126923,8,89601E-06,0,7965,-0,9668117,0,7965,0,2699016,0,7965,-0,1490501
0,06178846,8,392462E-06,0,80325,-0,8499885,0,80325,0,1168231,0,80325,-0,2457313,0,06178846,8,89601E-06,0,80325,-0,97084,0,80325,0,27393,0,80325,-0,1490501
0,06230769,7,049668E-06,0,81,-0,8499885,0,81,0,1168231,0,81,-0,2497597,0,06230769,7,385367E-06,0,81,-0,9587549,0,81,0,27393,0,81,-0,1490501
0,06282692,8,560311E-06,0,81675,-0,8459601,0,81675,0,1087663,0,81675,-0,2497597,0,06282692,6,54612E-06,0,81675,-0,9547265,0,81675,0,2860151,0,81675,-0,1450217
0,06334615,1,040665E-05,0,8235,-0,8379034,0,8235,0,1047379,0,8235,-0,2618448,0,06334615,6,71397E-06,0,8235,-0,9466697,0,8235,0,2819867,0,8235,-0,1490501
0,06386539,1,15816E-05,0,83025,-0,833875,0,83025,0,1047379,0,83025,-0,2699016,0,06386539,9,735257E-06,0,83025,-0,9345846,0,83025,0,2900435,0,83025,-0,1490501
0,06438462,1,292439E-05,0,837,-0,8298466,0,837,0,1007095,0,837,-0,2779583,0,06438462,1,208515E-05,0,837,-0,9265279,0,837,0,2860151,0,837,-0,1490501
0,06490385,1,359579E-05,0,84375,-0,8258182,0,84375,0,09668116,0,84375,-0,27393,0,06490385,1,19173E-05,0,84375,-0,9224994,0,84375,0,2860151,0,84375,-0,1611353
0,06542308,1,309224E-05,0,8505,-0,8217899,0,8505,0,0886244,0,8505,-0,27393,0,06542308,1,12459E-05,0,8505,-0,9104142,0,8505,0,2860151,0,8505,-0,1571069
0,06594231,1,326009E-05,0,85725,-0,8177615,0,85725,0,0886244,0,85725,-0,2819867,0,06594231,1,292439E-05,0,85725,-0,9023575,0,85725,0,2940719,0,85725,-0,169192
0,06646154,1,443503E-05,0,864,-0,8137331,0,864,0,0886244,0,864,-0,27393,0,06646154,1,477073E-05,0,864,-0,9023575,0,864,0,2900435,0,864,-0,1772488
0,06698077,1,460288E-05,0,87075,-0,8177615,0,87075,0,0886244,0,87075,-0,2699016,0,06698077,1,460288E-05,0,87075,-0,8943007,0,87075,0,2860151,0,87075,-0,1853056
0,0675,1,443503E-05,0,8775,-0,8217899,0,8775,0,09265278,0,8775,-0,2658732,0,0675,1,393149E-05,0,8775,-0,8983291,0,8775,0,2860151,0,8775,-0,1853056
0,06801923,1,393149E-05,0,88425,-0,8298466,0,88425,0,09265278,0,88425,-0,2699016,0,06801923,1,326009E-05,0,88425,-0,8983291,0,88425,0,2940719,0,88425,-0,1973907
0,06853846,1,359579E-05,0,891,-0,8379034,0,891,0,09265278,0,891,-0,2699016,0,06853846,1,225299E-05,0,891,-0,9184711,0,891,0,2940719,0,891,-0,1933623
0,0690577,1,19173E-05,0,89775,-0,8379034,0,89775,0,1007095,0,89775,-0,27393,0,0690577,1,09102E-05,0,89775,-0,9224994,0,89775,0,3021286,0,89775,-0,1933623
0,06957693,1,15816E-05,0,9045,-0,8499885,0,9045,0,1007095,0,9045,-0,2819867,0,06957693,9,567407E-06,0,9045,-0,9305562,0,9045,0,2940719,0,9045,-0,1853056
0,07009616,1,275654E-05,0,91125,-0,8459601,0,91125,0,1127947,0,91125,-0,2819867,0,07009616,9,567407E-06,0,91125,-0,9426414,0,91125,0,3021286,0,91125,-0,1853056
0,07061539,1,393149E-05,0,918,-0,8459601,0,918,0,1208515,0,918,-0,2860151,0,07061539,7,888914E-06,0,918,-0,9466697,0,918,0,2981002,0,918,-0,1732204
0,07113462,1,393149E-05,0,92475,-0,8379034,0,92475,0,1248798,0,92475,-0,2860151,0,07113462,7,385367E-06,0,92475,-0,9466697,0,92475,0,2900435,0,92475,-0,169192
0,07165385,1,174945E-05,0,9315,-0,8419318,0,9315,0,1289082,0,9315,-0,2779583,0,07165385,8,224613E-06,0,9315,-0,9466697,0,9315,0,2860151,0,9315,-0,1611353
0,07217308,1,12459E-05,0,93825,-0,8419318,0,93825,0,1329366,0,93825,-0,2819867,0,07217308,8,89601E-06,0,93825,-0,9466697,0,93825,0,27393,0,93825,-0,1651637
0,0726923,1,174945E-05,0,945,-0,8540169,0,945,0,1289082,0,945,-0,2819867,0,0726923,1,007095E-05,0,945,-0,9466697,0,945,0,2699016,0,945,-0,1732204
0,07321154,1,05745E-05,0,95175,-0,8580453,0,95175,0,1248798,0,95175,-0,2819867,0,07321154,1,02388E-05,0,95175,-0,9506981,0,95175,0,2699016,0,95175,-0,1651637
0,07373077,1,05745E-05,0,9585,-0,8580453,0,9585,0,1168231,0,9585,-0,2779583,0,07373077,8,392462E-06,0,9585,-0,9547265,0,9585,0,2618448,0,9585,-0,1651637
0,07425,1,19173E-05,0,96525,-0,8580453,0,96525,0,1087663,0,96525,-0,2779583,0,07425,7,888914E-06,0,96525,-0,9547265,0,96525,0,2699016,0,96525,-0,1611353
0,07476923,1,174945E-05,0,972,-0,8620737,0,972,0,1087663,0,972,-0,27393,0,07476923,9,231708E-06,0,972,-0,9627832,0,972,0,2618448,0,972,-0,169192
0,07528846,1,107805E-05,0,97875,-0,8620737,0,97875,0,09668116,0,97875,-0,2699016,0,07528846,1,15816E-05,0,97875,-0,9587549,0,97875,0,27393,0,97875,-0,1571069
0,07580769,1,09102E-05,0,9855,-0,8580453,0,9855,0,09668116,0,9855,-0,2658732,0,07580769,1,326009E-05,0,9855,-0,9587549,0,9855,0,27393,0,9855,-0,1571069
0,07632692,1,05745E-05,0,99225,-0,8499885,0,99225,0,1047379,0,99225,-0,2658732,0,07632692,1,309224E-05,0,99225,-0,9547265,0,99225,0,27393,0,99225,-0,1611353
0,07684615,9,231708E-06,0,999,-0,8459601,0,999,0,09668116,0,999,-0,2618448,0,07684615,1,258869E-05,0,999,-0,9547265,0,999,0,2699016,0,999,-0,1611353
0,07736538,7,049668E-06,1,00575,-0,8540169,1,00575,0,1007095,1,00575,-0,2618448,0,07736538,1,208515E-05,1,00575,-0,9426414,1,00575,0,2658732,1,00575,-0,1651637
0,07788461,5,874724E-06,1,0125,-0,8540169,1,0125,0,1047379,1,0125,-0,2658732,0,07788461,1,174945E-05,1,0125,-0,9466697,1,0125,0,2779583,1,0125,-0,1651637
0,07840385,6,881819E-06,1,01925,-0,8540169,1,01925,0,1087663,1,01925,-0,2658732,0,07840385,1,15816E-05,1,01925,-0,9466697,1,01925,0,2819867,1,01925,-0,1651637
0,07892308,8,89601E-06,1,026,-0,8540169,1,026,0,1047379,1,026,-0,2658732,0,07892308,1,02388E-05,1,026,-0,9386129,1,026,0,2779583,1,026,-0,1651637
0,07944231,9,903106E-06,1,03275,-0,8499885,1,03275,0,1087663,1,03275,-0,2658732,0,07944231,8,224613E-06,1,03275,-0,9386129,1,03275,0,2819867,1,03275,-0,1651637
0,07996154,8,728161E-06,1,0395,-0,8419318,1,0395,0,1087663,1,0395,-0,2699016,0,07996154,7,553216E-06,1,0395,-0,9305562,1,0395,0,2860151,1,0395,-0,1571069
0,08048077,8,728161E-06,1,04625,-0,8379034,1,04625,0,1087663,1,04625,-0,2658732,0,08048077,7,049668E-06,1,04625,-0,9345846,1,04625,0,2860151,1,04625,-0,1571069
0,081,1,107805E-05,1,053,-0,8379034,1,053,0,1168231,1,053,-0,27393,0,081,6,881819E-06,1,053,-0,9305562,1,053,0,2819867,1,053,-0,1611353
0,08151923,1,258869E-05,1,05975,-0,8419318,1,05975,0,1208515,1,05975,-0,2618448,0,08151923,7,721065E-06,1,05975,-0,9345846,1,05975,0,2860151,1,05975,-0,1611353
0,08203846,1,326009E-05,1,0665,-0,8459601,1,0665,0,1208515,1,0665,-0,2699016,0,08203846,9,231708E-06,1,0665,-0,9345846,1,0665,0,2940719,1,0665,-0,1651637
0,08255769,1,258869E-05,1,07325,-0,8540169,1,07325,0,1127947,1,07325,-0,2658732,0,08255769,1,174945E-05,1,07325,-0,9426414,1,07325,0,2981002,1,07325,-0,1732204
0,08307692,1,174945E-05,1,08,-0,8701304,1,08,0,1127947,1,08,-0,2578164,0,08307692,1,258869E-05,1,08,-0,9426414,1,08,0,2981002,1,08,-0,1732204
0,08359616,1,12459E-05,1,08675,-0,8741588,1,08675,0,1127947,1,08675,-0,2578164,0,08359616,1,443503E-05,1,08675,-0,9506981,1,08675,0,2981002,1,08675,-0,169192
0,08411539,1,05745E-05,1,0935,-0,866102,1,0935,0,1168231,1,0935,-0,2578164,0,08411539,1,695277E-05,1,0935,-0,9547265,1,0935,0,2900435,1,0935,-0,1611353
0,08463462,1,19173E-05,1,10025,-0,8580453,1,10025,0,1208515,1,10025,-0,2578164,0,08463462,1,712062E-05,1,10025,-0,9506981,1,10025,0,2900435,1,10025,-0,1571069
0,08515385,1,19173E-05,1,107,-0,8620737,1,107,0,1087663,1,107,-0,2618448,0,08515385,1,728847E-05,1,107,-0,9547265,1,107,0,2860151,1,107,-0,1530785
0,08567308,9,903106E-06,1,11375,-0,8580453,1,11375,0,1208515,1,11375,-0,2618448,0,08567308,1,644923E-05,1,11375,-0,9547265,1,11375,0,2819867,1,11375,-0,1450217
0,08619231,9,735257E-06,1,1205,-0,8580453,1,1205,0,1168231,1,1205,-0,2658732,0,08619231,1,661708E-05,1,1205,-0,9587549,1,1205,0,2699016,1,1205,-0,1450217
0,08671154,1,15816E-05,1,12725,-0,8620737,1,12725,0,1168231,1,12725,-0,2699016,0,08671154,1,628138E-05,1,12725,-0,9587549,1,12725,0,2658732,1,12725,-0,1450217
0,08723077,1,242084E-05,1,134,-0,8580453,1,134,0,1208515,1,134,-0,27393,0,08723077,1,493858E-05,1,134,-0,9547265,1,134,0,2618448,1,134,-0,1490501
0,08775,1,225299E-05,1,14075,-0,8540169,1,14075,0,1168231,1,14075,-0,2779583,0,08775,1,359579E-05,1,14075,-0,9466697,1,14075,0,2699016,1,14075,-0,1490501
0,08826923,9,903106E-06,1,1475,-0,8499885,1,1475,0,1127947,1,1475,-0,2779583,0,08826923,1,628138E-05,1,1475,-0,9466697,1,1475,0,2618448,1,1475,-0,1571069
0,08878846,5,874724E-06,1,15425,-0,8459601,1,15425,0,1168231,1,15425,-0,27393,0,08878846,1,930266E-05,1,15425,-0,9426414,1,15425,0,2618448,1,15425,-0,1571069
0,0893077,4,531929E-06,1,161,-0,8419318,1,161,0,1208515,1,161,-0,2779583,0,0893077,1,863126E-05,1,161,-0,9466697,1,161,0,2578164,1,161,-0,1571069
0,08982693,7,049668E-06,1,16775,-0,8419318,1,16775,0,1248798,1,16775,-0,2779583,0,08982693,1,594568E-05,1,16775,-0,9386129,1,16775,0,2537881,1,16775,-0,1611353
0,09034616,7,217517E-06,1,1745,-0,8379034,1,1745,0,1208515,1,1745,-0,27393,0,09034616,1,426719E-05,1,1745,-0,9426414,1,1745,0,2578164,1,1745,-0,1651637
0,09086539,7,049668E-06,1,18125,-0,8419318,1,18125,0,1168231,1,18125,-0,27393,0,09086539,1,258869E-05,1,18125,-0,9426414,1,18125,0,2578164,1,18125,-0,1651637
0,09138462,8,560311E-06,1,188,-0,8419318,1,188,0,1168231,1,188,-0,27393,0,09138462,9,735257E-06,1,188,-0,9345846,1,188,0,2618448,1,188,-0,1732204
0,09190385,9,567407E-06,1,19475,-0,8459601,1,19475,0,1168231,1,19475,-0,2699016,0,09190385,9,231708E-06,1,19475,-0,9426414,1,19475,0,2658732,1,19475,-0,169192
0,09242308,1,05745E-05,1,2015,-0,8540169,1,2015,0,1168231,1,2015,-0,2779583,0,09242308,7,888914E-06,1,2015,-0,9547265,1,2015,0,27393,1,2015,-0,1611353
0,09294231,1,107805E-05,1,20825,-0,8540169,1,20825,0,1168231,1,20825,-0,27393,0,09294231,4,531929E-06,1,20825,-0,9506981,1,20825,0,2779583,1,20825,-0,1611353
0,09346154,8,560311E-06,1,215,-0,8580453,1,215,0,1168231,1,215,-0,2819867,0,09346154,3,356985E-06,1,215,-0,9547265,1,215,0,2900435,1,215,-0,1571069
0,09398077,5,874724E-06,1,22175,-0,8580453,1,22175,0,1168231,1,22175,-0,2819867,0,09398077,4,028382E-06,1,22175,-0,9587549,1,22175,0,2940719,1,22175,-0,1571069
0,0945,6,54612E-06,1,2285,-0,8580453,1,2285,0,1168231,1,2285,-0,2779583,0,0945,3,189135E-06,1,2285,-0,9547265,1,2285,0,2940719,1,2285,-0,1571069
0,09501923,9,231708E-06,1,23525,-0,8580453,1,23525,0,1168231,1,23525,-0,2699016,0,09501923,1,174945E-06,1,23525,-0,9506981,1,23525,0,2940719,1,23525,-0,1571069
0,09553846,9,231708E-06,1,242,-0,8580453,1,242,0,1127947,1,242,-0,2658732,0,09553846,1,846342E-06,1,242,-0,9466697,1,242,0,2940719,1,242,-0,1571069
0,09605769,5,203327E-06,1,24875,-0,8499885,1,24875,0,1127947,1,24875,-0,2658732,0,09605769,2,517739E-06,1,24875,-0,9466697,1,24875,0,2860151,1,24875,-0,1611353
0,09657692,2,18204E-06,1,2555,-0,8459601,1,2555,0,1127947,1,2555,-0,2618448,0,09657692,3,524834E-06,1,2555,-0,9426414,1,2555,0,2940719,1,2555,-0,1651637
0,09709615,3,860533E-06,1,26225,-0,8379034,1,26225,0,1087663,1,26225,-0,2578164,0,09709615,2,349889E-06,1,26225,-0,9305562,1,26225,0,2819867,1,26225,-0,1651637
0,09761538,7,553216E-06,1,269,-0,8419318,1,269,0,09668116,1,269,-0,2618448,0,09761538,2,517739E-06,1,269,-0,9305562,1,269,0,2940719,1,269,-0,1732204
0,09813461,8,392462E-06,1,27575,-0,8379034,1,27575,0,1007095,1,27575,-0,2658732,0,09813461,7,049668E-06,1,27575,-0,9305562,1,27575,0,2779583,1,27575,-0,169192
0,09865385,1,007095E-05,1,2825,-0,8379034,1,2825,0,1047379,1,2825,-0,2699016,0,09865385,1,05745E-05,1,2825,-0,9345846,1,2825,0,2819867,1,2825,-0,1611353
0,09917308,1,15816E-05,1,28925,-0,8379034,1,28925,0,1047379,1,28925,-0,27393,0,09917308,1,292439E-05,1,28925,-0,9386129,1,28925,0,27393,1,28925,-0,169192
0,09969231,1,19173E-05,1,296,-0,8419318,1,296,0,1047379,1,296,-0,2819867,0,09969231,1,460288E-05,1,296,-0,9426414,1,296,0,2819867,1,296,-0,169192
0,1002115,1,12459E-05,1,30275,-0,8419318,1,30275,0,1047379,1,30275,-0,2860151,0,1002115,1,15816E-05,1,30275,-0,9426414,1,30275,0,2819867,1,30275,-0,169192
0,1007308,1,225299E-05,1,3095,-0,8459601,1,3095,0,1087663,1,3095,-0,2860151,0,1007308,8,224613E-06,1,3095,-0,9426414,1,3095,0,2779583,1,3095,-0,169192
0,10125,1,510643E-05,1,31625,-0,8459601,1,31625,0,1127947,1,31625,-0,27393,0,10125,6,54612E-06,1,31625,-0,9506981,1,31625,0,2900435,1,31625,-0,1772488
0,1017692,1,426719E-05,1,323,-0,8459601,1,323,0,1168231,1,323,-0,2779583,0,1017692,8,224613E-06,1,323,-0,9547265,1,323,0,2860151,1,323,-0,1732204
0,1022885,1,208515E-05,1,32975,-0,8540169,1,32975,0,1127947,1,32975,-0,27393,0,1022885,9,063859E-06,1,32975,-0,9547265,1,32975,0,2860151,1,32975,-0,1772488
0,1028077,1,12459E-05,1,3365,-0,8499885,1,3365,0,1087663,1,3365,-0,2699016,0,1028077,7,888914E-06,1,3365,-0,9506981,1,3365,0,2860151,1,3365,-0,1772488
0,1033269,9,903106E-06,1,34325,-0,8580453,1,34325,0,1047379,1,34325,-0,2699016,0,1033269,4,699778E-06,1,34325,-0,9547265,1,34325,0,2860151,1,34325,-0,1812772
0,1038462,9,063859E-06,1,35,-0,8540169,1,35,0,09668116,1,35,-0,2699016,0,1038462,2,853437E-06,1,35,-0,9547265,1,35,0,2860151,1,35,-0,1853056
0,1043654,8,89601E-06,1,35675,-0,8540169,1,35675,0,09668116,1,35675,-0,2699016,0,1043654,4,867628E-06,1,35675,-0,9466697,1,35675,0,2900435,1,35675,-0,169192
0,1048846,9,903106E-06,1,3635,-0,8580453,1,3635,0,09668116,1,3635,-0,2699016,0,1048846,8,224613E-06,1,3635,-0,9466697,1,3635,0,2940719,1,3635,-0,1732204
0,1054038,1,09102E-05,1,37025,-0,8459601,1,37025,0,09668116,1,37025,-0,2699016,0,1054038,1,05745E-05,1,37025,-0,9386129,1,37025,0,2900435,1,37025,-0,169192
0,1059231,1,292439E-05,1,377,-0,8499885,1,377,0,1007095,1,377,-0,27393,0,1059231,9,903106E-06,1,377,-0,9345846,1,377,0,2940719,1,377,-0,169192
0,1064423,1,560998E-05,1,38375,-0,8499885,1,38375,0,1007095,1,38375,-0,2658732,0,1064423,7,721065E-06,1,38375,-0,9345846,1,38375,0,2940719,1,38375,-0,1611353
0,1069615,1,577783E-05,1,3905,-0,8459601,1,3905,0,1087663,1,3905,-0,2699016,0,1069615,5,874724E-06,1,3905,-0,9426414,1,3905,0,2900435,1,3905,-0,1611353
0,1074808,1,443503E-05,1,39725,-0,8540169,1,39725,0,1087663,1,39725,-0,2658732,0,1074808,5,203327E-06,1,39725,-0,9466697,1,39725,0,2900435,1,39725,-0,1651637
0,108,1,460288E-05,1,404,-0,8499885,1,404,0,1087663,1,404,-0,2699016,0,108,7,553216E-06,1,404,-0,9506981,1,404,0,2860151,1,404,-0,1530785
0,1085192,1,594568E-05,1,41075,-0,8499885,1,41075,0,1127947,1,41075,-0,2618448,0,1085192,1,225299E-05,1,41075,-0,9466697,1,41075,0,2860151,1,41075,-0,1530785
0,1090385,1,628138E-05,1,4175,-0,8499885,1,4175,0,1127947,1,4175,-0,2699016,0,1090385,1,460288E-05,1,4175,-0,9506981,1,4175,0,27393,1,4175,-0,1611353
0,1095577,1,326009E-05,1,42425,-0,8459601,1,42425,0,1127947,1,42425,-0,2699016,0,1095577,1,292439E-05,1,42425,-0,9466697,1,42425,0,2658732,1,42425,-0,1571069
0,1100769,1,05745E-05,1,431,-0,8419318,1,431,0,1127947,1,431,-0,2819867,0,1100769,8,728161E-06,1,431,-0,9587549,1,431,0,2618448,1,431,-0,1611353
0,1105962,1,12459E-05,1,43775,-0,8499885,1,43775,0,1087663,1,43775,-0,2819867,0,1105962,6,210422E-06,1,43775,-0,9506981,1,43775,0,2658732,1,43775,-0,1651637
0,1111154,1,292439E-05,1,4445,-0,8620737,1,4445,0,1087663,1,4445,-0,2819867,0,1111154,4,531929E-06,1,4445,-0,9547265,1,4445,0,2658732,1,4445,-0,1651637
0,1116346,1,527428E-05,1,45125,-0,8620737,1,45125,0,1087663,1,45125,-0,2860151,0,1116346,2,517739E-06,1,45125,-0,9506981,1,45125,0,27393,1,45125,-0,1611353
0,1121539,1,577783E-05,1,458,-0,8701304,1,458,0,1127947,1,458,-0,2819867,0,1121539,-5,035478E-07,1,458,-0,9506981,1,458,0,2699016,1,458,-0,1611353
0,1126731,1,326009E-05,1,46475,-0,866102,1,46475,0,1168231,1,46475,-0,2860151,0,1126731,-3,692683E-06,1,46475,-0,9506981,1,46475,0,27393,1,46475,-0,1611353
0,1131923,1,258869E-05,1,4715,-0,866102,1,4715,0,1168231,1,4715,-0,2779583,0,1131923,-2,18204E-06,1,4715,-0,9547265,1,4715,0,2779583,1,4715,-0,1651637
0,1137115,1,460288E-05,1,47825,-0,8580453,1,47825,0,1168231,1,47825,-0,27393,0,1137115,1,007096E-06,1,47825,-0,9506981,1,47825,0,27393,1,47825,-0,1732204
0,1142308,1,493858E-05,1,485,-0,8580453,1,485,0,1248798,1,485,-0,2618448,0,1142308,6,042573E-06,1,485,-0,9506981,1,485,0,2819867,1,485,-0,1611353
0,11475,1,326009E-05,1,49175,-0,8540169,1,49175,0,1168231,1,49175,-0,2658732,0,11475,9,567407E-06,1,49175,-0,9466697,1,49175,0,27393,1,49175,-0,1611353
0,1152692,1,19173E-05,1,4985,-0,8580453,1,4985,0,1127947,1,4985,-0,2578164,0,1152692,1,09102E-05,1,4985,-0,9547265,1,4985,0,2779583,1,4985,-0,1611353
0,1157885,1,19173E-05,1,50525,-0,8540169,1,50525,0,1168231,1,50525,-0,2618448,0,1157885,1,292439E-05,1,50525,-0,9506981,1,50525,0,2819867,1,50525,-0,1611353
0,1163077,1,208515E-05,1,512,-0,8459601,1,512,0,1127947,1,512,-0,2699016,0,1163077,1,493858E-05,1,512,-0,9466697,1,512,0,2860151,1,512,-0,1611353
0,1168269,1,19173E-05,1,51875,-0,8499885,1,51875,0,1127947,1,51875,-0,2699016,0,1168269,1,527428E-05,1,51875,-0,9506981,1,51875,0,2900435,1,51875,-0,1571069
0,1173462,1,19173E-05,1,5255,-0,8419318,1,5255,0,1168231,1,5255,-0,27393,0,1173462,1,292439E-05,1,5255,-0,9506981,1,5255,0,2900435,1,5255,-0,1571069
0,1178654,1,225299E-05,1,53225,-0,8419318,1,53225,0,1127947,1,53225,-0,27393,0,1178654,1,19173E-05,1,53225,-0,9466697,1,53225,0,2940719,1,53225,-0,1571069
0,1183846,1,242084E-05,1,539,-0,8419318,1,539,0,1127947,1,539,-0,27393,0,1183846,1,19173E-05,1,539,-0,9426414,1,539,0,2900435,1,539,-0,169192
0,1189038,1,02388E-05,1,54575,-0,8459601,1,54575,0,1127947,1,54575,-0,2699016,0,1189038,1,326009E-05,1,54575,-0,9426414,1,54575,0,2900435,1,54575,-0,1732204
0,1194231,9,903106E-06,1,5525,-0,8459601,1,5525,0,1168231,1,5525,-0,2658732,0,1194231,1,292439E-05,1,5525,-0,9466697,1,5525,0,2900435,1,5525,-0,169192
0,1199423,1,05745E-05,1,55925,-0,8540169,1,55925,0,1127947,1,55925,-0,2658732,0,1199423,1,040665E-05,1,55925,-0,9506981,1,55925,0,2900435,1,55925,-0,1651637
0,1204615,1,05745E-05,1,566,-0,8499885,1,566,0,1087663,1,566,-0,2658732,0,1204615,7,888914E-06,1,566,-0,9506981,1,566,0,2900435,1,566,-0,1651637
0,1209808,9,567407E-06,1,57275,-0,8540169,1,57275,0,1007095,1,57275,-0,2618448,0,1209808,6,881819E-06,1,57275,-0,9506981,1,57275,0,2900435,1,57275,-0,1611353
0,1215,1,141375E-05,1,5795,-0,8540169,1,5795,0,1047379,1,5795,-0,2578164,0,1215,6,378271E-06,1,5795,-0,9506981,1,5795,0,2819867,1,5795,-0,1651637
0,1220192,1,174945E-05,1,58625,-0,8459601,1,58625,0,1087663,1,58625,-0,2578164,0,1220192,7,721065E-06,1,58625,-0,9386129,1,58625,0,2819867,1,58625,-0,1651637
0,1225385,1,09102E-05,1,593,-0,833875,1,593,0,1087663,1,593,-0,2578164,0,1225385,9,567407E-06,1,593,-0,9426414,1,593,0,27393,1,593,-0,1571069
0,1230577,1,05745E-05,1,59975,-0,833875,1,59975,0,1047379,1,59975,-0,2618448,0,1230577,9,231708E-06,1,59975,-0,9426414,1,59975,0,2699016,1,59975,-0,169192
0,1235769,1,12459E-05,1,6065,-0,833875,1,6065,0,09668116,1,6065,-0,2658732,0,1235769,7,217517E-06,1,6065,-0,9305562,1,6065,0,2699016,1,6065,-0,1651637
0,1240962,1,19173E-05,1,61325,-0,8419318,1,61325,0,1007095,1,61325,-0,2779583,0,1240962,5,203327E-06,1,61325,-0,9386129,1,61325,0,27393,1,61325,-0,169192
0,1246154,1,258869E-05,1,62,-0,8499885,1,62,0,1047379,1,62,-0,2819867,0,1246154,5,539025E-06,1,62,-0,9426414,1,62,0,2699016,1,62,-0,169192
0,1251346,1,15816E-05,1,62675,-0,8580453,1,62675,0,1007095,1,62675,-0,2860151,0,1251346,6,210422E-06,1,62675,-0,9386129,1,62675,0,2779583,1,62675,-0,1732204
0,1256538,1,15816E-05,1,6335,-0,8580453,1,6335,0,09265278,1,6335,-0,2860151,0,1256538,4,531929E-06,1,6335,-0,9426414,1,6335,0,2819867,1,6335,-0,1732204
0,1261731,1,225299E-05,1,64025,-0,8540169,1,64025,0,09265278,1,64025,-0,2819867,0,1261731,2,18204E-06,1,64025,-0,9466697,1,64025,0,2860151,1,64025,-0,169192
0,1266923,1,393149E-05,1,647,-0,8540169,1,647,0,09265278,1,647,-0,2779583,0,1266923,3,021286E-06,1,647,-0,9506981,1,647,0,2900435,1,647,-0,1732204
0,1272115,1,527428E-05,1,65375,-0,8499885,1,65375,0,09668116,1,65375,-0,2699016,0,1272115,5,539025E-06,1,65375,-0,9547265,1,65375,0,2940719,1,65375,-0,1772488
0,1277308,1,242084E-05,1,6605,-0,8499885,1,6605,0,1007095,1,6605,-0,2618448,0,1277308,5,203327E-06,1,6605,-0,9506981,1,6605,0,2819867,1,6605,-0,1772488
0,12825,8,392462E-06,1,66725,-0,8419318,1,66725,0,1007095,1,66725,-0,2578164,0,12825,1,342794E-06,1,66725,-0,9466697,1,66725,0,2860151,1,66725,-0,1732204
0,1287692,8,560311E-06,1,674,-0,8459601,1,674,0,1007095,1,674,-0,2618448,0,1287692,1,846342E-06,1,674,-0,9466697,1,674,0,2779583,1,674,-0,1732204
0,1292885,1,02388E-05,1,68075,-0,8459601,1,68075,0,1047379,1,68075,-0,2658732,0,1292885,6,54612E-06,1,68075,-0,9345846,1,68075,0,2819867,1,68075,-0,169192
0,1298077,1,09102E-05,1,6875,-0,8499885,1,6875,0,1087663,1,6875,-0,2699016,0,1298077,7,888914E-06,1,6875,-0,9345846,1,6875,0,2860151,1,6875,-0,1732204
0,1303269,1,225299E-05,1,69425,-0,8540169,1,69425,0,1087663,1,69425,-0,2779583,0,1303269,4,196231E-06,1,69425,-0,9305562,1,69425,0,2940719,1,69425,-0,1651637
0,1308462,1,19173E-05,1,701,-0,8540169,1,701,0,1127947,1,701,-0,2779583,0,1308462,1,342794E-06,1,701,-0,9305562,1,701,0,2860151,1,701,-0,1651637
0,1313654,1,05745E-05,1,70775,-0,8499885,1,70775,0,1208515,1,70775,-0,2819867,0,1313654,3,356985E-06,1,70775,-0,9345846,1,70775,0,2900435,1,70775,-0,1651637
0,1318846,9,735257E-06,1,7145,-0,8499885,1,7145,0,1208515,1,7145,-0,2819867,0,1318846,7,553216E-06,1,7145,-0,9305562,1,7145,0,2819867,1,7145,-0,1651637
0,1324039,7,721065E-06,1,72125,-0,8499885,1,72125,0,1208515,1,72125,-0,2819867,0,1324039,1,02388E-05,1,72125,-0,9386129,1,72125,0,2779583,1,72125,-0,1651637
0,1329231,7,049668E-06,1,728,-0,8459601,1,728,0,1127947,1,728,-0,2819867,0,1329231,9,231708E-06,1,728,-0,9466697,1,728,0,2779583,1,728,-0,1651637
0,1334423,9,063859E-06,1,73475,-0,8499885,1,73475,0,1087663,1,73475,-0,2860151,0,1334423,6,54612E-06,1,73475,-0,9466697,1,73475,0,2779583,1,73475,-0,1651637
0,1339615,9,231708E-06,1,7415,-0,8459601,1,7415,0,1047379,1,7415,-0,2819867,0,1339615,4,531929E-06,1,7415,-0,9466697,1,7415,0,2779583,1,7415,-0,1732204
0,1344808,8,89601E-06,1,74825,-0,8459601,1,74825,0,1047379,1,74825,-0,2819867,0,1344808,4,196231E-06,1,74825,-0,9547265,1,74825,0,27393,1,74825,-0,1812772
0,135,7,888914E-06,1,755,-0,8459601,1,755,0,1007095,1,755,-0,2860151,0,135,7,217517E-06,1,755,-0,9547265,1,755,0,2699016,1,755,-0,1812772
0,1355192,6,881819E-06,1,76175,-0,8499885,1,76175,0,1007095,1,76175,-0,2860151,0,1355192,8,89601E-06,1,76175,-0,9506981,1,76175,0,2699016,1,76175,-0,1812772
0,1360385,8,560311E-06,1,7685,-0,8540169,1,7685,0,1007095,1,7685,-0,2860151,0,1360385,7,888914E-06,1,7685,-0,9587549,1,7685,0,2779583,1,7685,-0,1772488
0,1365577,9,567407E-06,1,77525,-0,8540169,1,77525,0,1007095,1,77525,-0,2779583,0,1365577,8,560311E-06,1,77525,-0,9547265,1,77525,0,2819867,1,77525,-0,1732204
0,1370769,9,903106E-06,1,782,-0,8580453,1,782,0,09668116,1,782,-0,27393,0,1370769,1,12459E-05,1,782,-0,9547265,1,782,0,2860151,1,782,-0,1732204
0,1375962,9,903106E-06,1,78875,-0,8540169,1,78875,0,09668116,1,78875,-0,27393,0,1375962,1,12459E-05,1,78875,-0,9506981,1,78875,0,2900435,1,78875,-0,1732204
0,1381154,1,09102E-05,1,7955,-0,8580453,1,7955,0,09668116,1,7955,-0,2658732,0,1381154,9,567407E-06,1,7955,-0,9506981,1,7955,0,2981002,1,7955,-0,169192
0,1386346,1,19173E-05,1,80225,-0,8499885,1,80225,0,09668116,1,80225,-0,2618448,0,1386346,8,392462E-06,1,80225,-0,9386129,1,80225,0,306157,1,80225,-0,1651637
0,1391539,9,903106E-06,1,809,-0,8540169,1,809,0,0886244,1,809,-0,2658732,0,1391539,9,399557E-06,1,809,-0,9386129,1,809,0,3021286,1,809,-0,1611353
0,1396731,7,217517E-06,1,81575,-0,8499885,1,81575,0,0886244,1,81575,-0,2618448,0,1396731,1,12459E-05,1,81575,-0,9345846,1,81575,0,2981002,1,81575,-0,1571069
0,1401923,6,881819E-06,1,8225,-0,8459601,1,8225,0,08459602,1,8225,-0,2618448,0,1401923,1,19173E-05,1,8225,-0,9345846,1,8225,0,2981002,1,8225,-0,1571069
0,1407115,9,231708E-06,1,82925,-0,8419318,1,82925,0,0886244,1,82925,-0,2578164,0,1407115,1,05745E-05,1,82925,-0,9305562,1,82925,0,2981002,1,82925,-0,1530785
0,1412308,1,15816E-05,1,836,-0,8459601,1,836,0,0886244,1,836,-0,2618448,0,1412308,1,05745E-05,1,836,-0,9305562,1,836,0,2900435,1,836,-0,1571069
0,14175,1,225299E-05,1,84275,-0,8459601,1,84275,0,0886244,1,84275,-0,2699016,0,14175,1,326009E-05,1,84275,-0,9345846,1,84275,0,2940719,1,84275,-0,1651637
0,1422692,1,326009E-05,1,8495,-0,8419318,1,8495,0,09668116,1,8495,-0,2699016,0,1422692,1,560998E-05,1,8495,-0,9265279,1,8495,0,2860151,1,8495,-0,1732204
0,1427885,1,359579E-05,1,85625,-0,8419318,1,85625,0,1007095,1,85625,-0,27393,0,1427885,1,594568E-05,1,85625,-0,9345846,1,85625,0,2981002,1,85625,-0,1732204
0,1433077,1,12459E-05,1,863,-0,8459601,1,863,0,1087663,1,863,-0,27393,0,1433077,1,527428E-05,1,863,-0,9386129,1,863,0,2860151,1,863,-0,169192
0,1438269,1,05745E-05,1,86975,-0,8499885,1,86975,0,1127947,1,86975,-0,2779583,0,1438269,1,560998E-05,1,86975,-0,9426414,1,86975,0,2860151,1,86975,-0,1732204
0,1443462,1,258869E-05,1,8765,-0,8540169,1,8765,0,1168231,1,8765,-0,2779583,0,1443462,1,560998E-05,1,8765,-0,9466697,1,8765,0,2860151,1,8765,-0,1772488
0,1448654,1,527428E-05,1,88325,-0,8580453,1,88325,0,1168231,1,88325,-0,2779583,0,1448654,1,309224E-05,1,88325,-0,9506981,1,88325,0,2900435,1,88325,-0,1812772
0,1453846,1,527428E-05,1,89,-0,8540169,1,89,0,1168231,1,89,-0,2779583,0,1453846,1,292439E-05,1,89,-0,9506981,1,89,0,2940719,1,89,-0,1772488
0,1459038,1,258869E-05,1,89675,-0,8499885,1,89675,0,1127947,1,89675,-0,2699016,0,1459038,1,326009E-05,1,89675,-0,9547265,1,89675,0,2981002,1,89675,-0,1732204
0,1464231,1,426719E-05,1,9035,-0,8580453,1,9035,0,1047379,1,9035,-0,2658732,0,1464231,1,208515E-05,1,9035,-0,9466697,1,9035,0,2940719,1,9035,-0,1812772
0,1469423,1,829557E-05,1,91025,-0,8540169,1,91025,0,09668116,1,91025,-0,2699016,0,1469423,1,107805E-05,1,91025,-0,9466697,1,91025,0,2940719,1,91025,-0,169192
0,1474615,1,762417E-05,1,917,-0,8499885,1,917,0,09265278,1,917,-0,2618448,0,1474615,1,19173E-05,1,917,-0,9506981,1,917,0,2860151,1,917,-0,169192
0,1479808,1,225299E-05,1,92375,-0,8580453,1,92375,0,09265278,1,92375,-0,2578164,0,1479808,1,174945E-05,1,92375,-0,9466697,1,92375,0,2900435,1,92375,-0,1571069
0,1485,1,09102E-05,1,9305,-0,8540169,1,9305,0,08459602,1,9305,-0,2618448,0,1485,1,174945E-05,1,9305,-0,9386129,1,9305,0,2819867,1,9305,-0,1651637
0,1490192,1,19173E-05,1,93725,-0,8540169,1,93725,0,09265278,1,93725,-0,2618448,0,1490192,1,426719E-05,1,93725,-0,9386129,1,93725,0,2779583,1,93725,-0,1611353
0,1495385,1,007095E-05,1,944,-0,8499885,1,944,0,0886244,1,944,-0,2699016,0,1495385,1,544213E-05,1,944,-0,9426414,1,944,0,2860151,1,944,-0,1651637
0,1500577,5,203327E-06,1,95075,-0,8499885,1,95075,0,0886244,1,95075,-0,2658732,0,1500577,1,393149E-05,1,95075,-0,9386129,1,95075,0,2779583,1,95075,-0,1611353
0,1505769,3,860533E-06,1,9575,-0,8499885,1,9575,0,09668116,1,9575,-0,2699016,0,1505769,1,02388E-05,1,9575,-0,9386129,1,9575,0,2860151,1,9575,-0,1651637
0,1510962,7,217517E-06,1,96425,-0,8499885,1,96425,0,1007095,1,96425,-0,2699016,0,1510962,6,881819E-06,1,96425,-0,9426414,1,96425,0,2819867,1,96425,-0,169192
0,1516154,9,903106E-06,1,971,-0,8499885,1,971,0,09668116,1,971,-0,2699016,0,1516154,7,553216E-06,1,971,-0,9426414,1,971,0,2819867,1,971,-0,169192
0,1521346,9,903106E-06,1,97775,-0,8459601,1,97775,0,1047379,1,97775,-0,2658732,0,1521346,7,217517E-06,1,97775,-0,9426414,1,97775,0,2900435,1,97775,-0,1732204
0,1526538,9,903106E-06,1,9845,-0,8540169,1,9845,0,1007095,1,9845,-0,2618448,0,1526538,4,867628E-06,1,9845,-0,9466697,1,9845,0,2900435,1,9845,-0,1732204
0,1531731,1,05745E-05,1,99125,-0,8540169,1,99125,0,1007095,1,99125,-0,2658732,0,1531731,5,874724E-06,1,99125,-0,9466697,1,99125,0,2940719,1,99125,-0,1732204
0,1536923,1,174945E-05,1,998,-0,8499885,1,998,0,09265278,1,998,-0,2699016,0,1536923,8,560311E-06,1,998,-0,9506981,1,998,0,2900435,1,998,-0,1732204
0,1542115,1,326009E-05,2,00475,-0,8540169,2,00475,0,09265278,2,00475,-0,2658732,0,1542115,7,553216E-06,2,00475,-0,9466697,2,00475,0,3021286,2,00475,-0,169192
0,1547308,1,292439E-05,2,0115,-0,8580453,2,0115,0,09668116,2,0115,-0,2658732,0,1547308,5,203327E-06,2,0115,-0,9426414,2,0115,0,2940719,2,0115,-0,169192
0,15525,1,141375E-05,2,01825,-0,8540169,2,01825,0,09265278,2,01825,-0,2658732,0,15525,4,867628E-06,2,01825,-0,9466697,2,01825,0,2940719,2,01825,-0,1651637
0,1557692,9,735257E-06,2,025,-0,8499885,2,025,0,09668116,2,025,-0,2699016,0,1557692,6,378271E-06,2,025,-0,9426414,2,025,0,2900435,2,025,-0,1611353
0,1562885,7,553216E-06,2,03175,-0,8540169,2,03175,0,1007095,2,03175,-0,2699016,0,1562885,1,007095E-05,2,03175,-0,9345846,2,03175,0,2940719,2,03175,-0,1651637
0,1568077,7,049668E-06,2,0385,-0,8499885,2,0385,0,1007095,2,0385,-0,2699016,0,1568077,1,12459E-05,2,0385,-0,9386129,2,0385,0,2860151,2,0385,-0,1611353
0,1573269,8,728161E-06,2,04525,-0,8580453,2,04525,0,1047379,2,04525,-0,27393,0,1573269,8,560311E-06,2,04525,-0,9386129,2,04525,0,2779583,2,04525,-0,1611353
0,1578462,1,05745E-05,2,052,-0,8499885,2,052,0,1127947,2,052,-0,27393,0,1578462,6,54612E-06,2,052,-0,9426414,2,052,0,27393,2,052,-0,1651637
0,1583654,1,141375E-05,2,05875,-0,8499885,2,05875,0,1168231,2,05875,-0,27393,0,1583654,7,553216E-06,2,05875,-0,9386129,2,05875,0,2779583,2,05875,-0,1732204
0,1588846,9,735257E-06,2,0655,-0,8459601,2,0655,0,1127947,2,0655,-0,2779583,0,1588846,7,217517E-06,2,0655,-0,9466697,2,0655,0,27393,2,0655,-0,169192
0,1594038,7,385367E-06,2,07225,-0,8499885,2,07225,0,1127947,2,07225,-0,2779583,0,1594038,7,217517E-06,2,07225,-0,9506981,2,07225,0,2779583,2,07225,-0,169192
0,1599231,6,042573E-06,2,079,-0,8459601,2,079,0,1127947,2,079,-0,2699016,0,1599231,8,392462E-06,2,079,-0,9466697,2,079,0,27393,2,079,-0,169192
0,1604423,7,217517E-06,2,08575,-0,8459601,2,08575,0,1087663,2,08575,-0,27393,0,1604423,7,217517E-06,2,08575,-0,9426414,2,08575,0,2779583,2,08575,-0,1651637
0,1609615,9,567407E-06,2,0925,-0,8540169,2,0925,0,1127947,2,0925,-0,2779583,0,1609615,5,203327E-06,2,0925,-0,9466697,2,0925,0,2779583,2,0925,-0,1651637
0,1614808,9,903106E-06,2,09925,-0,8580453,2,09925,0,1127947,2,09925,-0,2699016,0,1614808,6,210422E-06,2,09925,-0,9506981,2,09925,0,2779583,2,09925,-0,169192
0,162,9,231708E-06,2,106,-0,8540169,2,106,0,1087663,2,106,-0,2658732,0,162,6,881819E-06,2,106,-0,9506981,2,106,0,2819867,2,106,-0,1651637
0,1625192,9,231708E-06,2,11275,-0,8580453,2,11275,0,1047379,2,11275,-0,2658732,0,1625192,7,888914E-06,2,11275,-0,9466697,2,11275,0,2819867,2,11275,-0,1651637
0,1630385,9,231708E-06,2,1195,-0,8620737,2,1195,0,1047379,2,1195,-0,2658732,0,1630385,8,728161E-06,2,1195,-0,9466697,2,1195,0,2900435,2,1195,-0,1651637
0,1635577,8,560311E-06,2,12625,-0,8580453,2,12625,0,1007095,2,12625,-0,2618448,0,1635577,8,560311E-06,2,12625,-0,9506981,2,12625,0,2940719,2,12625,-0,1611353
0,1640769,7,888914E-06,2,133,-0,8580453,2,133,0,1007095,2,133,-0,2699016,0,1640769,9,231708E-06,2,133,-0,9506981,2,133,0,2900435,2,133,-0,1651637
0,1645962,9,903106E-06,2,13975,-0,8540169,2,13975,0,1007095,2,13975,-0,2699016,0,1645962,1,225299E-05,2,13975,-0,9466697,2,13975,0,2981002,2,13975,-0,1611353
0,1651154,1,19173E-05,2,1465,-0,8540169,2,1465,0,09265278,2,1465,-0,2779583,0,1651154,1,460288E-05,2,1465,-0,9547265,2,1465,0,2900435,2,1465,-0,1611353
0,1656346,1,292439E-05,2,15325,-0,8540169,2,15325,0,09265278,2,15325,-0,2699016,0,1656346,1,359579E-05,2,15325,-0,9506981,2,15325,0,2900435,2,15325,-0,1651637
0,1661538,1,443503E-05,2,16,-0,8499885,2,16,0,09265278,2,16,-0,2779583,0,1661538,1,09102E-05,2,16,-0,9426414,2,16,0,2900435,2,16,-0,1611353
0,1666731,1,661708E-05,2,16675,-0,8459601,2,16675,0,09265278,2,16675,-0,2699016,0,1666731,9,735257E-06,2,16675,-0,9345846,2,16675,0,2860151,2,16675,-0,1732204
0,1671923,1,628138E-05,2,1735,-0,8459601,2,1735,0,1007095,2,1735,-0,2699016,0,1671923,9,063859E-06,2,1735,-0,9345846,2,1735,0,2900435,2,1735,-0,169192
0,1677115,1,426719E-05,2,18025,-0,8499885,2,18025,0,1007095,2,18025,-0,2699016,0,1677115,8,89601E-06,2,18025,-0,9386129,2,18025,0,2860151,2,18025,-0,1812772
0,1682308,1,326009E-05,2,187,-0,8540169,2,187,0,09668116,2,187,-0,2779583,0,1682308,7,553216E-06,2,187,-0,9466697,2,187,0,2860151,2,187,-0,1812772
0,16875,1,19173E-05,2,19375,-0,8580453,2,19375,0,09668116,2,19375,-0,2779583,0,16875,6,54612E-06,2,19375,-0,9426414,2,19375,0,2860151,2,19375,-0,1772488
0,1692692,1,05745E-05,2,2005,-0,8540169,2,2005,0,1007095,2,2005,-0,2779583,0,1692692,7,888914E-06,2,2005,-0,9426414,2,2005,0,2819867,2,2005,-0,1732204
0,1697885,9,231708E-06,2,20725,-0,8499885,2,20725,0,1047379,2,20725,-0,2779583,0,1697885,1,02388E-05,2,20725,-0,9466697,2,20725,0,2860151,2,20725,-0,1651637
0,1703077,9,903106E-06,2,214,-0,8459601,2,214,0,1087663,2,214,-0,27393,0,1703077,1,05745E-05,2,214,-0,9466697,2,214,0,2779583,2,214,-0,169192
0,1708269,1,15816E-05,2,22075,-0,8419318,2,22075,0,1127947,2,22075,-0,27393,0,1708269,9,231708E-06,2,22075,-0,9466697,2,22075,0,27393,2,22075,-0,169192
0,1713462,1,05745E-05,2,2275,-0,8419318,2,2275,0,1087663,2,2275,-0,2699016,0,1713462,6,378271E-06,2,2275,-0,9386129,2,2275,0,2779583,2,2275,-0,1732204
0,1718654,1,05745E-05,2,23425,-0,8459601,2,23425,0,1127947,2,23425,-0,27393,0,1718654,5,539025E-06,2,23425,-0,9386129,2,23425,0,2779583,2,23425,-0,1732204
0,1723846,1,05745E-05,2,241,-0,8540169,2,241,0,1087663,2,241,-0,2819867,0,1723846,7,385367E-06,2,241,-0,9426414,2,241,0,2819867,2,241,-0,1772488
0,1729039,1,09102E-05,2,24775,-0,8580453,2,24775,0,1087663,2,24775,-0,2819867,0,1729039,6,54612E-06,2,24775,-0,9426414,2,24775,0,2860151,2,24775,-0,169192
0,1734231,1,19173E-05,2,2545,-0,8580453,2,2545,0,1047379,2,2545,-0,2819867,0,1734231,3,021286E-06,2,2545,-0,9506981,2,2545,0,2860151,2,2545,-0,1772488
0,1739423,1,477073E-05,2,26125,-0,8580453,2,26125,0,1087663,2,26125,-0,2779583,0,1739423,1,678492E-07,2,26125,-0,9466697,2,26125,0,2900435,2,26125,-0,1651637
0,1744615,1,493858E-05,2,268,-0,8580453,2,268,0,1047379,2,268,-0,2779583,0,1744615,0,2,268,-0,9466697,2,268,0,2900435,2,268,-0,169192
0,1749808,1,460288E-05,2,27475,-0,8540169,2,27475,0,1047379,2,27475,-0,27393,0,1749808,-3,356985E-07,2,27475,-0,9547265,2,27475,0,2940719,2,27475,-0,1651637
0,1755,1,493858E-05,2,2815,-0,8540169,2,2815,0,09668116,2,2815,-0,2618448,0,1755,-6,713969E-07,2,2815,-0,9466697,2,2815,0,2860151,2,2815,-0,169192
0,1760192,1,292439E-05,2,28825,-0,8540169,2,28825,0,09668116,2,28825,-0,2618448,0,1760192,1,510643E-06,2,28825,-0,9466697,2,28825,0,2819867,2,28825,-0,1732204
0,1765385,9,231708E-06,2,295,-0,8499885,2,295,0,1007095,2,295,-0,2658732,0,1765385,4,196231E-06,2,295,-0,9386129,2,295,0,2860151,2,295,-0,1611353
0,1770577,6,54612E-06,2,30175,-0,8499885,2,30175,0,1007095,2,30175,-0,2658732,0,1770577,4,531929E-06,2,30175,-0,9386129,2,30175,0,2819867,2,30175,-0,1651637
0,1775769,5,874724E-06,2,3085,-0,8540169,2,3085,0,1007095,2,3085,-0,2658732,0,1775769,3,524834E-06,2,3085,-0,9386129,2,3085,0,2819867,2,3085,-0,169192
0,1780962,7,553216E-06,2,31525,-0,8540169,2,31525,0,1047379,2,31525,-0,2699016,0,1780962,3,356985E-06,2,31525,-0,9345846,2,31525,0,2900435,2,31525,-0,1611353
0,1786154,9,567407E-06,2,322,-0,8580453,2,322,0,1047379,2,322,-0,27393,0,1786154,4,867628E-06,2,322,-0,9345846,2,322,0,2819867,2,322,-0,1611353
0,1791346,1,09102E-05,2,32875,-0,8540169,2,32875,0,1087663,2,32875,-0,2779583,0,1791346,7,888914E-06,2,32875,-0,9305562,2,32875,0,2860151,2,32875,-0,1611353
0,1796539,1,225299E-05,2,3355,-0,8540169,2,3355,0,1087663,2,3355,-0,2779583,0,1796539,9,567407E-06,2,3355,-0,9345846,2,3355,0,2779583,2,3355,-0,1571069
0,1801731,1,12459E-05,2,34225,-0,8499885,2,34225,0,1127947,2,34225,-0,2779583,0,1801731,1,074235E-05,2,34225,-0,9386129,2,34225,0,2819867,2,34225,-0,1651637
0,1806923,1,05745E-05,2,349,-0,8499885,2,349,0,1047379,2,349,-0,2779583,0,1806923,1,376364E-05,2,349,-0,9345846,2,349,0,2779583,2,349,-0,1772488
0,1812115,1,107805E-05,2,35575,-0,8419318,2,35575,0,1087663,2,35575,-0,2819867,0,1812115,1,745632E-05,2,35575,-0,9426414,2,35575,0,2819867,2,35575,-0,169192
0,1817308,1,376364E-05,2,3625,-0,8459601,2,3625,0,1087663,2,3625,-0,2819867,0,1817308,1,896696E-05,2,3625,-0,9466697,2,3625,0,2779583,2,3625,-0,1732204
0,18225,1,493858E-05,2,36925,-0,8459601,2,36925,0,1087663,2,36925,-0,2819867,0,18225,1,795987E-05,2,36925,-0,9466697,2,36925,0,2819867,2,36925,-0,1772488
0,1827692,1,443503E-05,2,376,-0,8540169,2,376,0,1047379,2,376,-0,2900435,0,1827692,1,661708E-05,2,376,-0,9466697,2,376,0,2779583,2,376,-0,1772488
0,1832885,1,309224E-05,2,38275,-0,8499885,2,38275,0,1007095,2,38275,-0,2819867,0,1832885,1,510643E-05,2,38275,-0,9466697,2,38275,0,2860151,2,38275,-0,1812772
0,1838077,1,09102E-05,2,3895,-0,8540169,2,3895,0,1047379,2,3895,-0,2779583,0,1838077,1,19173E-05,2,3895,-0,9506981,2,3895,0,2900435,2,3895,-0,1772488
0,1843269,1,107805E-05,2,39625,-0,8620737,2,39625,0,1047379,2,39625,-0,2779583,0,1843269,9,903106E-06,2,39625,-0,9506981,2,39625,0,3021286,2,39625,-0,1772488
0,1848462,1,258869E-05,2,403,-0,8620737,2,403,0,1007095,2,403,-0,2779583,0,1848462,8,224613E-06,2,403,-0,9547265,2,403,0,2981002,2,403,-0,169192
0,1853654,1,12459E-05,2,40975,-0,8580453,2,40975,0,1087663,2,40975,-0,2699016,0,1853654,8,89601E-06,2,40975,-0,9506981,2,40975,0,2981002,2,40975,-0,1651637
0,1858846,9,567407E-06,2,4165,-0,8620737,2,4165,0,1047379,2,4165,-0,2658732,0,1858846,1,12459E-05,2,4165,-0,9506981,2,4165,0,2981002,2,4165,-0,1611353
0,1864039,8,056764E-06,2,42325,-0,8580453,2,42325,0,1127947,2,42325,-0,2618448,0,1864039,1,510643E-05,2,42325,-0,9426414,2,42325,0,2940719,2,42325,-0,1651637
0,1869231,8,392462E-06,2,43,-0,8499885,2,43,0,1127947,2,43,-0,2618448,0,1869231,1,594568E-05,2,43,-0,9506981,2,43,0,2981002,2,43,-0,1571069
0,1874423,1,040665E-05,2,43675,-0,8499885,2,43675,0,1047379,2,43675,-0,2618448,0,1874423,1,292439E-05,2,43675,-0,9426414,2,43675,0,2860151,2,43675,-0,1571069
0,1879615,1,242084E-05,2,4435,-0,8499885,2,4435,0,1087663,2,4435,-0,2658732,0,1879615,1,107805E-05,2,4435,-0,9466697,2,4435,0,2819867,2,4435,-0,1571069
0,1884808,1,19173E-05,2,45025,-0,8459601,2,45025,0,1047379,2,45025,-0,2658732,0,1884808,1,225299E-05,2,45025,-0,9426414,2,45025,0,2779583,2,45025,-0,1651637
0,189,1,174945E-05,2,457,-0,8499885,2,457,0,09668116,2,457,-0,2699016,0,189,1,443503E-05,2,457,-0,9426414,2,457,0,27393,2,457,-0,1651637
0,1895192,1,208515E-05,2,46375,-0,8499885,2,46375,0,09668116,2,46375,-0,2699016,0,1895192,1,661708E-05,2,46375,-0,9386129,2,46375,0,2699016,2,46375,-0,1651637
0,1900385,1,443503E-05,2,4705,-0,8499885,2,4705,0,09265278,2,4705,-0,27393,0,1900385,1,460288E-05,2,4705,-0,9426414,2,4705,0,2699016,2,4705,-0,1651637
0,1905577,1,510643E-05,2,47725,-0,8499885,2,47725,0,0886244,2,47725,-0,2819867,0,1905577,1,292439E-05,2,47725,-0,9426414,2,47725,0,2779583,2,47725,-0,1732204
0,1910769,1,594568E-05,2,484,-0,8459601,2,484,0,09265278,2,484,-0,2819867,0,1910769,1,225299E-05,2,484,-0,9466697,2,484,0,27393,2,484,-0,1772488
0,1915962,1,712062E-05,2,49075,-0,8459601,2,49075,0,09668116,2,49075,-0,27393,0,1915962,1,107805E-05,2,49075,-0,9426414,2,49075,0,2900435,2,49075,-0,1772488
0,1921154,1,577783E-05,2,4975,-0,8499885,2,4975,0,09668116,2,4975,-0,2699016,0,1921154,8,056764E-06,2,4975,-0,9386129,2,4975,0,2819867,2,4975,-0,1732204
0,1926346,1,426719E-05,2,50425,-0,8540169,2,50425,0,1007095,2,50425,-0,2658732,0,1926346,5,706875E-06,2,50425,-0,9386129,2,50425,0,2819867,2,50425,-0,169192
0,1931538,1,443503E-05,2,511,-0,8459601,2,511,0,1047379,2,511,-0,2699016,0,1931538,6,378271E-06,2,511,-0,9426414,2,511,0,2860151,2,511,-0,169192
0,1936731,1,326009E-05,2,51775,-0,8580453,2,51775,0,1047379,2,51775,-0,2658732,0,1936731,6,54612E-06,2,51775,-0,9466697,2,51775,0,2940719,2,51775,-0,169192
0,1941923,1,15816E-05,2,5245,-0,8499885,2,5245,0,1047379,2,5245,-0,2699016,0,1941923,3,860533E-06,2,5245,-0,9506981,2,5245,0,2900435,2,5245,-0,1651637
0,1947115,1,107805E-05,2,53125,-0,8499885,2,53125,0,1087663,2,53125,-0,2658732,0,1947115,-1,007096E-06,2,53125,-0,9466697,2,53125,0,2860151,2,53125,-0,169192
0,1952308,1,15816E-05,2,538,-0,8499885,2,538,0,1087663,2,538,-0,2779583,0,1952308,-3,189135E-06,2,538,-0,9506981,2,538,0,2860151,2,538,-0,1651637
0,19575,1,05745E-05,2,54475,-0,8459601,2,54475,0,1168231,2,54475,-0,2819867,0,19575,3,356985E-07,2,54475,-0,9466697,2,54475,0,2900435,2,54475,-0,1611353
0,1962692,9,231708E-06,2,5515,-0,8419318,2,5515,0,1087663,2,5515,-0,2819867,0,1962692,4,867628E-06,2,5515,-0,9426414,2,5515,0,2900435,2,5515,-0,169192
0,1967885,7,888914E-06,2,55825,-0,8499885,2,55825,0,1087663,2,55825,-0,27393,0,1967885,6,881819E-06,2,55825,-0,9345846,2,55825,0,2860151,2,55825,-0,1611353
0,1973077,8,560311E-06,2,565,-0,8540169,2,565,0,1087663,2,565,-0,2779583,0,1973077,5,035477E-06,2,565,-0,9386129,2,565,0,2860151,2,565,-0,1651637
0,1978269,1,107805E-05,2,57175,-0,8540169,2,57175,0,1127947,2,57175,-0,2699016,0,1978269,2,18204E-06,2,57175,-0,9345846,2,57175,0,2900435,2,57175,-0,1651637
0,1983462,1,12459E-05,2,5785,-0,8580453,2,5785,0,1087663,2,5785,-0,2699016,0,1983462,2,517739E-06,2,5785,-0,9386129,2,5785,0,2860151,2,5785,-0,1611353
0,1988654,1,09102E-05,2,58525,-0,8580453,2,58525,0,1087663,2,58525,-0,2658732,0,1988654,5,874724E-06,2,58525,-0,9345846,2,58525,0,2900435,2,58525,-0,1651637
0,1993846,1,007095E-05,2,592,-0,8620737,2,592,0,1007095,2,592,-0,2618448,0,1993846,9,903106E-06,2,592,-0,9466697,2,592,0,2860151,2,592,-0,1611353
0,1999038,9,735257E-06,2,59875,-0,8540169,2,59875,0,1047379,2,59875,-0,2618448,0,1999038,1,376364E-05,2,59875,-0,9506981,2,59875,0,2900435,2,59875,-0,1651637
0,2004231,9,735257E-06,2,6055,-0,8499885,2,6055,0,1007095,2,6055,-0,2658732,0,2004231,1,510643E-05,2,6055,-0,9506981,2,6055,0,2860151,2,6055,-0,1651637
0,2009423,1,12459E-05,2,61225,-0,8499885,2,61225,0,1007095,2,61225,-0,2658732,0,2009423,1,19173E-05,2,61225,-0,9506981,2,61225,0,2940719,2,61225,-0,1611353
0,2014615,1,326009E-05,2,619,-0,8540169,2,619,0,1007095,2,619,-0,2658732,0,2014615,7,217517E-06,2,619,-0,9506981,2,619,0,2860151,2,619,-0,1611353
0,2019808,1,409934E-05,2,62575,-0,8459601,2,62575,0,1007095,2,62575,-0,27393,0,2019808,3,860533E-06,2,62575,-0,9506981,2,62575,0,2900435,2,62575,-0,1611353
0,2025,1,460288E-05,2,6325,-0,8540169,2,6325,0,1007095,2,6325,-0,2779583,0,2025,2,517739E-06,2,6325,-0,9426414,2,6325,0,2860151,2,6325,-0,1611353
0,2030192,1,393149E-05,2,63925,-0,8580453,2,63925,0,1007095,2,63925,-0,2779583,0,2030192,5,035477E-06,2,63925,-0,9506981,2,63925,0,2819867,2,63925,-0,1651637
0,2035385,1,15816E-05,2,646,-0,8540169,2,646,0,1047379,2,646,-0,2819867,0,2035385,9,231708E-06,2,646,-0,9426414,2,646,0,2819867,2,646,-0,169192
0,2040577,9,903106E-06,2,65275,-0,8499885,2,65275,0,1007095,2,65275,-0,27393,0,2040577,7,721065E-06,2,65275,-0,9466697,2,65275,0,2819867,2,65275,-0,169192
0,2045769,9,063859E-06,2,6595,-0,8540169,2,6595,0,1007095,2,6595,-0,2779583,0,2045769,4,699778E-06,2,6595,-0,9466697,2,6595,0,2779583,2,6595,-0,169192
0,2050962,8,89601E-06,2,66625,-0,8499885,2,66625,0,1047379,2,66625,-0,27393,0,2050962,2,853437E-06,2,66625,-0,9426414,2,66625,0,2819867,2,66625,-0,1772488
0,2056154,8,728161E-06,2,673,-0,8459601,2,673,0,1047379,2,673,-0,2699016,0,2056154,1,174945E-06,2,673,-0,9345846,2,673,0,2860151,2,673,-0,1732204
0,2061346,7,888914E-06,2,67975,-0,8459601,2,67975,0,1047379,2,67975,-0,2658732,0,2061346,1,174945E-06,2,67975,-0,9386129,2,67975,0,2819867,2,67975,-0,1732204
0,2066538,8,224613E-06,2,6865,-0,8419318,2,6865,0,1047379,2,6865,-0,2618448,0,2066538,2,517739E-06,2,6865,-0,9386129,2,6865,0,2819867,2,6865,-0,169192
0,2071731,8,224613E-06,2,69325,-0,8459601,2,69325,0,1007095,2,69325,-0,2699016,0,2071731,1,678492E-06,2,69325,-0,9345846,2,69325,0,2860151,2,69325,-0,1772488
0,2076923,8,392462E-06,2,7,-0,8459601,2,7,0,1007095,2,7,-0,2699016,0,2076923,0,2,7,-0,9386129,2,7,0,2819867,2,7,-0,1651637
0,2082115,9,063859E-06,2,70675,-0,8499885,2,70675,0,09668116,2,70675,-0,2699016,0,2082115,-2,014191E-06,2,70675,-0,9386129,2,70675,0,2940719,2,70675,-0,1651637
0,2087308,9,231708E-06,2,7135,-0,8499885,2,7135,0,1007095,2,7135,-0,2699016,0,2087308,-1,678492E-06,2,7135,-0,9386129,2,7135,0,2940719,2,7135,-0,169192
0,20925,9,063859E-06,2,72025,-0,8499885,2,72025,0,1007095,2,72025,-0,2699016,0,20925,-1,007096E-06,2,72025,-0,9426414,2,72025,0,2940719,2,72025,-0,1611353
0,2097692,8,560311E-06,2,727,-0,8459601,2,727,0,1007095,2,727,-0,2699016,0,2097692,8,392462E-07,2,727,-0,9386129,2,727,0,2981002,2,727,-0,1611353
0,2102885,9,903106E-06,2,73375,-0,8499885,2,73375,0,09668116,2,73375,-0,2658732,0,2102885,5,203327E-06,2,73375,-0,9466697,2,73375,0,3021286,2,73375,-0,1611353
0,2108077,1,15816E-05,2,7405,-0,8540169,2,7405,0,1047379,2,7405,-0,2779583,0,2108077,9,231708E-06,2,7405,-0,9426414,2,7405,0,2940719,2,7405,-0,1651637
0,2113269,1,12459E-05,2,74725,-0,8580453,2,74725,0,1047379,2,74725,-0,2699016,0,2113269,1,05745E-05,2,74725,-0,9466697,2,74725,0,2860151,2,74725,-0,169192
0,2118462,1,007095E-05,2,754,-0,8540169,2,754,0,1047379,2,754,-0,2699016,0,2118462,9,903106E-06,2,754,-0,9466697,2,754,0,2779583,2,754,-0,1611353
0,2123654,1,05745E-05,2,76075,-0,8580453,2,76075,0,1087663,2,76075,-0,27393,0,2123654,9,735257E-06,2,76075,-0,9466697,2,76075,0,2819867,2,76075,-0,1732204
0,2128846,1,09102E-05,2,7675,-0,8540169,2,7675,0,1087663,2,7675,-0,2779583,0,2128846,9,567407E-06,2,7675,-0,9426414,2,7675,0,2779583,2,7675,-0,1651637
0,2134039,1,040665E-05,2,77425,-0,8419318,2,77425,0,1047379,2,77425,-0,27393,0,2134039,1,292439E-05,2,77425,-0,9506981,2,77425,0,27393,2,77425,-0,1732204
0,2139231,1,05745E-05,2,781,-0,8459601,2,781,0,1087663,2,781,-0,27393,0,2139231,1,393149E-05,2,781,-0,9426414,2,781,0,2779583,2,781,-0,169192
0,2144423,9,903106E-06,2,78775,-0,8459601,2,78775,0,1127947,2,78775,-0,2779583,0,2144423,9,903106E-06,2,78775,-0,9426414,2,78775,0,2819867,2,78775,-0,1732204
0,2149615,8,560311E-06,2,7945,-0,8459601,2,7945,0,1047379,2,7945,-0,2779583,0,2149615,9,735257E-06,2,7945,-0,9466697,2,7945,0,27393,2,7945,-0,1732204
0,2154808,7,888914E-06,2,80125,-0,8499885,2,80125,0,1127947,2,80125,-0,2699016,0,2154808,1,393149E-05,2,80125,-0,9426414,2,80125,0,2779583,2,80125,-0,1772488
0,216,7,217517E-06,2,808,-0,8580453,2,808,0,1047379,2,808,-0,27393,0,216,1,376364E-05,2,808,-0,9466697,2,808,0,2819867,2,808,-0,169192
0,2165192,6,378271E-06,2,81475,-0,8620737,2,81475,0,1087663,2,81475,-0,27393,0,2165192,1,107805E-05,2,81475,-0,9466697,2,81475,0,2900435,2,81475,-0,1651637
0,2170385,6,71397E-06,2,8215,-0,8540169,2,8215,0,1047379,2,8215,-0,27393,0,2170385,1,19173E-05,2,8215,-0,9426414,2,8215,0,2819867,2,8215,-0,1651637
0,2175577,6,54612E-06,2,82825,-0,8499885,2,82825,0,1047379,2,82825,-0,2699016,0,2175577,1,493858E-05,2,82825,-0,9466697,2,82825,0,2860151,2,82825,-0,1651637
0,2180769,7,217517E-06,2,835,-0,8499885,2,835,0,1007095,2,835,-0,27393,0,2180769,1,359579E-05,2,835,-0,9426414,2,835,0,2819867,2,835,-0,1651637
0,2185962,1,040665E-05,2,84175,-0,8499885,2,84175,0,1007095,2,84175,-0,2699016,0,2185962,8,392462E-06,2,84175,-0,9506981,2,84175,0,2860151,2,84175,-0,1611353
0,2191154,1,208515E-05,2,8485,-0,8499885,2,8485,0,09668116,2,8485,-0,2699016,0,2191154,5,203327E-06,2,8485,-0,9426414,2,8485,0,2819867,2,8485,-0,1571069
0,2196346,1,174945E-05,2,85525,-0,8540169,2,85525,0,1007095,2,85525,-0,27393,0,2196346,5,203327E-06,2,85525,-0,9426414,2,85525,0,2860151,2,85525,-0,1611353
0,2201539,1,09102E-05,2,862,-0,8499885,2,862,0,1007095,2,862,-0,2699016,0,2201539,7,888914E-06,2,862,-0,9386129,2,862,0,2819867,2,862,-0,169192
0,2206731,7,888914E-06,2,86875,-0,8419318,2,86875,0,1087663,2,86875,-0,2618448,0,2206731,1,02388E-05,2,86875,-0,9426414,2,86875,0,2819867,2,86875,-0,169192
0,2211923,5,203327E-06,2,8755,-0,8499885,2,8755,0,1087663,2,8755,-0,2699016,0,2211923,8,560311E-06,2,8755,-0,9426414,2,8755,0,2900435,2,8755,-0,169192
0,2217115,7,888914E-06,2,88225,-0,8459601,2,88225,0,1127947,2,88225,-0,2699016,0,2217115,4,699778E-06,2,88225,-0,9466697,2,88225,0,2860151,2,88225,-0,1732204
0,2222308,1,15816E-05,2,889,-0,8499885,2,889,0,1007095,2,889,-0,27393,0,2222308,4,699778E-06,2,889,-0,9466697,2,889,0,2860151,2,889,-0,1732204
0,22275,1,19173E-05,2,89575,-0,8499885,2,89575,0,1047379,2,89575,-0,2819867,0,22275,9,231708E-06,2,89575,-0,9466697,2,89575,0,2819867,2,89575,-0,169192
0,2232692,1,02388E-05,2,9025,-0,8540169,2,9025,0,1047379,2,9025,-0,2819867,0,2232692,1,05745E-05,2,9025,-0,9426414,2,9025,0,2860151,2,9025,-0,1611353
0,2237885,8,89601E-06,2,90925,-0,8499885,2,90925,0,1127947,2,90925,-0,2699016,0,2237885,9,903106E-06,2,90925,-0,9426414,2,90925,0,2779583,2,90925,-0,1611353
0,2243077,9,903106E-06,2,916,-0,8459601,2,916,0,1047379,2,916,-0,2658732,0,2243077,1,040665E-05,2,916,-0,9386129,2,916,0,2658732,2,916,-0,1651637
0,2248269,1,460288E-05,2,92275,-0,8379034,2,92275,0,1127947,2,92275,-0,2618448,0,2248269,1,007095E-05,2,92275,-0,9386129,2,92275,0,27393,2,92275,-0,1611353
0,2253462,1,728847E-05,2,9295,-0,8459601,2,9295,0,1047379,2,9295,-0,2658732,0,2253462,1,02388E-05,2,9295,-0,9386129,2,9295,0,2699016,2,9295,-0,169192
0,2258654,1,728847E-05,2,93625,-0,8540169,2,93625,0,1007095,2,93625,-0,2699016,0,2258654,1,225299E-05,2,93625,-0,9426414,2,93625,0,2819867,2,93625,-0,169192
0,2263846,1,527428E-05,2,943,-0,8540169,2,943,0,1047379,2,943,-0,2699016,0,2263846,1,443503E-05,2,943,-0,9426414,2,943,0,2860151,2,943,-0,169192
0,2269039,1,225299E-05,2,94975,-0,8540169,2,94975,0,1007095,2,94975,-0,27393,0,2269039,1,376364E-05,2,94975,-0,9466697,2,94975,0,2940719,2,94975,-0,1651637
0,2274231,1,258869E-05,2,9565,-0,8499885,2,9565,0,09668116,2,9565,-0,27393,0,2274231,1,19173E-05,2,9565,-0,9506981,2,9565,0,2940719,2,9565,-0,1732204
0,2279423,1,678492E-05,2,96325,-0,8540169,2,96325,0,09668116,2,96325,-0,2658732,0,2279423,1,12459E-05,2,96325,-0,9466697,2,96325,0,3101854,2,96325,-0,1571069
0,2284615,1,812772E-05,2,97,-0,8540169,2,97,0,09265278,2,97,-0,2658732,0,2284615,1,02388E-05,2,97,-0,9547265,2,97,0,306157,2,97,-0,1571069
0,2289808,1,560998E-05,2,97675,-0,8499885,2,97675,0,09265278,2,97675,-0,2497597,0,2289808,6,378271E-06,2,97675,-0,9506981,2,97675,0,3021286,2,97675,-0,1530785
0,2295,1,443503E-05,2,9835,-0,8459601,2,9835,0,09265278,2,9835,-0,2497597,0,2295,3,189135E-06,2,9835,-0,9426414,2,9835,0,3021286,2,9835,-0,1571069
0,2300192,1,594568E-05,2,99025,-0,8540169,2,99025,0,09668116,2,99025,-0,2537881,0,2300192,3,189135E-06,2,99025,-0,9345846,2,99025,0,2940719,2,99025,-0,1611353
0,2305385,1,829557E-05,2,997,-0,8580453,2,997,0,1007095,2,997,-0,2658732,0,2305385,4,196231E-06,2,997,-0,9426414,2,997,0,2940719,2,997,-0,1651637
0,2310577,1,728847E-05,3,00375,-0,8701304,3,00375,0,1047379,3,00375,-0,2699016,0,2310577,7,049668E-06,3,00375,-0,9386129,3,00375,0,2860151,3,00375,-0,169192
0,2315769,1,510643E-05,3,0105,-0,8620737,3,0105,0,1087663,3,0105,-0,2779583,0,2315769,1,15816E-05,3,0105,-0,9426414,3,0105,0,2779583,3,0105,-0,1651637
0,2320962,1,309224E-05,3,01725,-0,8620737,3,01725,0,1127947,3,01725,-0,2819867,0,2320962,1,15816E-05,3,01725,-0,9466697,3,01725,0,2819867,3,01725,-0,1611353
0,2326154,1,258869E-05,3,024,-0,8580453,3,024,0,1087663,3,024,-0,2860151,0,2326154,6,881819E-06,3,024,-0,9466697,3,024,0,2779583,3,024,-0,1651637
0,2331346,1,292439E-05,3,03075,-0,8540169,3,03075,0,1168231,3,03075,-0,2779583,0,2331346,5,203327E-06,3,03075,-0,9506981,3,03075,0,27393,3,03075,-0,169192
0,2336538,1,393149E-05,3,0375,-0,8499885,3,0375,0,1208515,3,0375,-0,2860151,0,2336538,7,721065E-06,3,0375,-0,9466697,3,0375,0,2779583,3,0375,-0,169192
0,2341731,1,309224E-05,3,04425,-0,8459601,3,04425,0,1168231,3,04425,-0,2860151,0,2341731,9,063859E-06,3,04425,-0,9506981,3,04425,0,2819867,3,04425,-0,1732204
0,2346923,1,09102E-05,3,051,-0,8459601,3,051,0,1168231,3,051,-0,2900435,0,2346923,5,874724E-06,3,051,-0,9506981,3,051,0,2819867,3,051,-0,1812772
0,2352115,1,174945E-05,3,05775,-0,8459601,3,05775,0,1168231,3,05775,-0,2819867,0,2352115,2,853437E-06,3,05775,-0,9506981,3,05775,0,2860151,3,05775,-0,1772488
0,2357308,1,326009E-05,3,0645,-0,8540169,3,0645,0,1168231,3,0645,-0,2819867,0,2357308,3,189135E-06,3,0645,-0,9506981,3,0645,0,2900435,3,0645,-0,1812772
0,23625,1,426719E-05,3,07125,-0,8540169,3,07125,0,1127947,3,07125,-0,27393,0,23625,5,874724E-06,3,07125,-0,9466697,3,07125,0,2819867,3,07125,-0,1772488
0,2367692,1,443503E-05,3,078,-0,8499885,3,078,0,1087663,3,078,-0,2819867,0,2367692,8,560311E-06,3,078,-0,9506981,3,078,0,27393,3,078,-0,1812772
0,2372885,1,242084E-05,3,08475,-0,8540169,3,08475,0,1047379,3,08475,-0,27393,0,2372885,1,007095E-05,3,08475,-0,9466697,3,08475,0,2779583,3,08475,-0,169192
0,2378077,1,040665E-05,3,0915,-0,8580453,3,0915,0,09668116,3,0915,-0,2779583,0,2378077,1,007095E-05,3,0915,-0,9506981,3,0915,0,2779583,3,0915,-0,169192
0,2383269,9,567407E-06,3,09825,-0,8540169,3,09825,0,09668116,3,09825,-0,2699016,0,2383269,9,231708E-06,3,09825,-0,9506981,3,09825,0,2900435,3,09825,-0,1651637
0,2388462,8,560311E-06,3,105,-0,8580453,3,105,0,09668116,3,105,-0,2699016,0,2388462,8,224613E-06,3,105,-0,9466697,3,105,0,2900435,3,105,-0,1611353
0,2393654,7,721065E-06,3,11175,-0,8580453,3,11175,0,09265278,3,11175,-0,27393,0,2393654,6,881819E-06,3,11175,-0,9506981,3,11175,0,2940719,3,11175,-0,169192
0,2398846,7,888914E-06,3,1185,-0,8540169,3,1185,0,09265278,3,1185,-0,27393,0,2398846,1,02388E-05,3,1185,-0,9466697,3,1185,0,2940719,3,1185,-0,1651637
0,2404038,7,049668E-06,3,12525,-0,8580453,3,12525,0,09668116,3,12525,-0,2618448,0,2404038,1,326009E-05,3,12525,-0,9466697,3,12525,0,2981002,3,12525,-0,1651637
0,2409231,4,867628E-06,3,132,-0,8580453,3,132,0,09668116,3,132,-0,2618448,0,2409231,1,258869E-05,3,132,-0,9426414,3,132,0,2940719,3,132,-0,169192
0,2414423,5,203327E-06,3,13875,-0,8540169,3,13875,0,09265278,3,13875,-0,2578164,0,2414423,1,359579E-05,3,13875,-0,9426414,3,13875,0,2940719,3,13875,-0,169192
0,2419615,7,217517E-06,3,1455,-0,8459601,3,1455,0,1007095,3,1455,-0,2658732,0,2419615,1,477073E-05,3,1455,-0,9345846,3,1455,0,2900435,3,1455,-0,169192
0,2424808,8,89601E-06,3,15225,-0,8419318,3,15225,0,1007095,3,15225,-0,2658732,0,2424808,1,544213E-05,3,15225,-0,9386129,3,15225,0,2819867,3,15225,-0,1732204
0,243,1,040665E-05,3,159,-0,8419318,3,159,0,1007095,3,159,-0,2618448,0,243,1,460288E-05,3,159,-0,9345846,3,159,0,27393,3,159,-0,1772488
0,2435192,1,225299E-05,3,16575,-0,8419318,3,16575,0,1007095,3,16575,-0,27393,0,2435192,1,326009E-05,3,16575,-0,9305562,3,16575,0,2699016,3,16575,-0,169192
0,2440385,1,326009E-05,3,1725,-0,8459601,3,1725,0,1007095,3,1725,-0,2779583,0,2440385,1,359579E-05,3,1725,-0,9386129,3,1725,0,2618448,3,1725,-0,1732204
0,2445577,1,15816E-05,3,17925,-0,8499885,3,17925,0,1007095,3,17925,-0,2900435,0,2445577,1,560998E-05,3,17925,-0,9426414,3,17925,0,2658732,3,17925,-0,1732204
0,2450769,9,063859E-06,3,186,-0,8499885,3,186,0,1007095,3,186,-0,2940719,0,2450769,1,359579E-05,3,186,-0,9386129,3,186,0,2699016,3,186,-0,169192
0,2455962,8,728161E-06,3,19275,-0,8499885,3,19275,0,1047379,3,19275,-0,2940719,0,2455962,1,02388E-05,3,19275,-0,9466697,3,19275,0,2699016,3,19275,-0,1732204
0,2461154,9,903106E-06,3,1995,-0,8540169,3,1995,0,1087663,3,1995,-0,2900435,0,2461154,7,888914E-06,3,1995,-0,9466697,3,1995,0,2779583,3,1995,-0,1732204
0,2466346,1,05745E-05,3,20625,-0,8459601,3,20625,0,1168231,3,20625,-0,2779583,0,2466346,7,217517E-06,3,20625,-0,9466697,3,20625,0,2900435,3,20625,-0,1732204
0,2471538,1,05745E-05,3,213,-0,8540169,3,213,0,1208515,3,213,-0,2779583,0,2471538,8,560311E-06,3,213,-0,9506981,3,213,0,2900435,3,213,-0,169192
0,2476731,9,903106E-06,3,21975,-0,8540169,3,21975,0,1208515,3,21975,-0,27393,0,2476731,9,567407E-06,3,21975,-0,9506981,3,21975,0,2981002,3,21975,-0,1732204
0,2481923,9,231708E-06,3,2265,-0,8580453,3,2265,0,1168231,3,2265,-0,2618448,0,2481923,7,217517E-06,3,2265,-0,9466697,3,2265,0,2940719,3,2265,-0,169192
0,2487115,1,02388E-05,3,23325,-0,8540169,3,23325,0,1168231,3,23325,-0,2578164,0,2487115,5,203327E-06,3,23325,-0,9426414,3,23325,0,3021286,3,23325,-0,1732204
0,2492308,1,225299E-05,3,24,-0,8540169,3,24,0,1087663,3,24,-0,2618448,0,2492308,6,881819E-06,3,24,-0,9466697,3,24,0,3021286,3,24,-0,169192
0,24975,1,258869E-05,3,24675,-0,8540169,3,24675,0,1087663,3,24675,-0,2658732,0,24975,6,54612E-06,3,24675,-0,9426414,3,24675,0,3021286,3,24675,-0,1651637
0,2502692,1,174945E-05,3,2535,-0,8540169,3,2535,0,1007095,3,2535,-0,2658732,0,2502692,4,531929E-06,3,2535,-0,9426414,3,2535,0,2981002,3,2535,-0,1651637
0,2507885,9,567407E-06,3,26025,-0,8499885,3,26025,0,1007095,3,26025,-0,2658732,0,2507885,4,36408E-06,3,26025,-0,9426414,3,26025,0,2940719,3,26025,-0,1611353
0,2513077,8,560311E-06,3,267,-0,8459601,3,267,0,1007095,3,267,-0,27393,0,2513077,7,385367E-06,3,267,-0,9426414,3,267,0,2940719,3,267,-0,1611353
0,2518269,1,05745E-05,3,27375,-0,8499885,3,27375,0,09265278,3,27375,-0,2779583,0,2518269,1,05745E-05,3,27375,-0,9386129,3,27375,0,2940719,3,27375,-0,1651637
0,2523462,1,242084E-05,3,2805,-0,8540169,3,2805,0,09265278,3,2805,-0,2819867,0,2523462,1,19173E-05,3,2805,-0,9386129,3,2805,0,2940719,3,2805,-0,1651637
0,2528654,1,12459E-05,3,28725,-0,8580453,3,28725,0,1007095,3,28725,-0,27393,0,2528654,1,174945E-05,3,28725,-0,9466697,3,28725,0,2900435,3,28725,-0,1651637
0,2533846,1,12459E-05,3,294,-0,8540169,3,294,0,1007095,3,294,-0,27393,0,2533846,1,258869E-05,3,294,-0,9506981,3,294,0,2900435,3,294,-0,1651637
0,2539038,1,12459E-05,3,30075,-0,8540169,3,30075,0,1047379,3,30075,-0,2618448,0,2539038,1,426719E-05,3,30075,-0,9587549,3,30075,0,2860151,3,30075,-0,1651637
0,2544231,1,19173E-05,3,3075,-0,8580453,3,3075,0,1047379,3,3075,-0,2618448,0,2544231,1,376364E-05,3,3075,-0,9587549,3,3075,0,2819867,3,3075,-0,169192
0,2549423,1,15816E-05,3,31425,-0,8540169,3,31425,0,1007095,3,31425,-0,2578164,0,2549423,1,258869E-05,3,31425,-0,9627832,3,31425,0,2779583,3,31425,-0,169192
0,2554615,1,19173E-05,3,321,-0,8540169,3,321,0,1007095,3,321,-0,2578164,0,2554615,1,208515E-05,3,321,-0,9587549,3,321,0,27393,3,321,-0,169192
0,2559808,1,292439E-05,3,32775,-0,8540169,3,32775,0,1007095,3,32775,-0,2618448,0,2559808,1,09102E-05,3,32775,-0,9547265,3,32775,0,2779583,3,32775,-0,1611353
0,2565,1,393149E-05,3,3345,-0,8540169,3,3345,0,09265278,3,3345,-0,2658732,0,2565,1,007095E-05,3,3345,-0,9587549,3,3345,0,27393,3,3345,-0,1651637
0,2570192,1,376364E-05,3,34125,-0,8540169,3,34125,0,1007095,3,34125,-0,2658732,0,2570192,1,09102E-05,3,34125,-0,9466697,3,34125,0,27393,3,34125,-0,1571069
0,2575385,1,292439E-05,3,348,-0,8540169,3,348,0,1047379,3,348,-0,27393,0,2575385,1,05745E-05,3,348,-0,9466697,3,348,0,27393,3,348,-0,1571069
0,2580577,1,19173E-05,3,35475,-0,8459601,3,35475,0,1047379,3,35475,-0,2699016,0,2580577,1,040665E-05,3,35475,-0,9386129,3,35475,0,27393,3,35475,-0,1530785
0,2585769,8,89601E-06,3,3615,-0,8419318,3,3615,0,1047379,3,3615,-0,27393,0,2585769,9,735257E-06,3,3615,-0,9345846,3,3615,0,2779583,3,3615,-0,1490501
0,2590961,7,888914E-06,3,36825,-0,8419318,3,36825,0,1168231,3,36825,-0,2699016,0,2590961,9,063859E-06,3,36825,-0,9265279,3,36825,0,27393,3,36825,-0,1611353
0,2596154,1,05745E-05,3,375,-0,8419318,3,375,0,1168231,3,375,-0,2618448,0,2596154,7,049668E-06,3,375,-0,9345846,3,375,0,27393,3,375,-0,1571069
0,2601346,1,359579E-05,3,38175,-0,8419318,3,38175,0,1168231,3,38175,-0,2658732,0,2601346,7,888914E-06,3,38175,-0,9345846,3,38175,0,27393,3,38175,-0,1611353
0,2606539,1,376364E-05,3,3885,-0,8459601,3,3885,0,1168231,3,3885,-0,2699016,0,2606539,1,05745E-05,3,3885,-0,9386129,3,3885,0,2699016,3,3885,-0,1651637
0,2611731,1,326009E-05,3,39525,-0,8499885,3,39525,0,1087663,3,39525,-0,2618448,0,2611731,1,15816E-05,3,39525,-0,9426414,3,39525,0,2779583,3,39525,-0,1732204
0,2616923,1,292439E-05,3,402,-0,8540169,3,402,0,1047379,3,402,-0,2618448,0,2616923,1,05745E-05,3,402,-0,9426414,3,402,0,2819867,3,402,-0,1732204
0,2622115,1,393149E-05,3,40875,-0,8540169,3,40875,0,1007095,3,40875,-0,2578164,0,2622115,8,560311E-06,3,40875,-0,9386129,3,40875,0,2940719,3,40875,-0,169192
0,2627308,1,409934E-05,3,4155,-0,8620737,3,4155,0,1047379,3,4155,-0,2578164,0,2627308,7,217517E-06,3,4155,-0,9345846,3,4155,0,2900435,3,4155,-0,1651637
0,26325,1,15816E-05,3,42225,-0,8620737,3,42225,0,1127947,3,42225,-0,2537881,0,26325,7,385367E-06,3,42225,-0,9345846,3,42225,0,306157,3,42225,-0,1530785
0,2637692,1,007095E-05,3,429,-0,8701304,3,429,0,1208515,3,429,-0,2497597,0,2637692,8,224613E-06,3,429,-0,9265279,3,429,0,306157,3,429,-0,1490501
0,2642885,8,89601E-06,3,43575,-0,866102,3,43575,0,1248798,3,43575,-0,2457313,0,2642885,1,12459E-05,3,43575,-0,9224994,3,43575,0,3142138,3,43575,-0,1409934
0,2648077,8,392462E-06,3,4425,-0,866102,3,4425,0,1248798,3,4425,-0,2376745,0,2648077,1,242084E-05,3,4425,-0,9305562,3,4425,0,3182422,3,4425,-0,1490501
0,2653269,9,399557E-06,3,44925,-0,8540169,3,44925,0,1168231,3,44925,-0,2417029,0,2653269,1,12459E-05,3,44925,-0,9466697,3,44925,0,3222705,3,44925,-0,1450217
0,2658462,1,208515E-05,3,456,-0,8499885,3,456,0,1127947,3,456,-0,2497597,0,2658462,9,231708E-06,3,456,-0,9547265,3,456,0,3182422,3,456,-0,1571069
0,2663654,1,426719E-05,3,46275,-0,8459601,3,46275,0,09668116,3,46275,-0,2618448,0,2663654,7,217517E-06,3,46275,-0,9627832,3,46275,0,3182422,3,46275,-0,1651637
0,2668846,1,409934E-05,3,4695,-0,8419318,3,4695,0,0886244,3,4695,-0,2699016,0,2668846,6,378271E-06,3,4695,-0,97084,3,4695,0,3101854,3,4695,-0,169192
0,2674038,1,208515E-05,3,47625,-0,8379034,3,47625,0,07653925,3,47625,-0,2779583,0,2674038,7,888914E-06,3,47625,-0,97084,3,47625,0,306157,3,47625,-0,1812772
0,2679231,1,12459E-05,3,483,-0,8459601,3,483,0,07653925,3,483,-0,2860151,0,2679231,8,224613E-06,3,483,-0,97084,3,483,0,3021286,3,483,-0,1893339
0,2684423,1,12459E-05,3,48975,-0,8540169,3,48975,0,06848249,3,48975,-0,2819867,0,2684423,7,217517E-06,3,48975,-0,9587549,3,48975,0,2981002,3,48975,-0,1853056
0,2689615,1,05745E-05,3,4965,-0,8540169,3,4965,0,07251087,3,4965,-0,2900435,0,2689615,8,224613E-06,3,4965,-0,9466697,3,4965,0,2940719,3,4965,-0,1893339
0,2694808,1,007095E-05,3,50325,-0,8580453,3,50325,0,07653925,3,50325,-0,2819867,0,2694808,9,231708E-06,3,50325,-0,9506981,3,50325,0,2940719,3,50325,-0,1893339
0,27,1,15816E-05,3,51,-0,8540169,3,51,0,07653925,3,51,-0,2779583,0,27,9,903106E-06,3,51,-0,9426414,3,51,0,2860151,3,51,-0,1893339
0,2705192,1,19173E-05,3,51675,-0,8540169,3,51675,0,0886244,3,51675,-0,2699016,0,2705192,1,326009E-05,3,51675,-0,9466697,3,51675,0,2779583,3,51675,-0,1853056
0,2710385,1,05745E-05,3,5235,-0,8540169,3,5235,0,09668116,3,5235,-0,2699016,0,2710385,1,477073E-05,3,5235,-0,9426414,3,5235,0,2699016,3,5235,-0,1853056
0,2715577,8,560311E-06,3,53025,-0,8419318,3,53025,0,1047379,3,53025,-0,2618448,0,2715577,1,292439E-05,3,53025,-0,9506981,3,53025,0,2618448,3,53025,-0,1812772
0,2720769,8,560311E-06,3,537,-0,8258182,3,537,0,1127947,3,537,-0,2658732,0,2720769,1,09102E-05,3,537,-0,9506981,3,537,0,2578164,3,537,-0,1853056
0,2725962,8,560311E-06,3,54375,-0,8217899,3,54375,0,1127947,3,54375,-0,2779583,0,2725962,1,040665E-05,3,54375,-0,9426414,3,54375,0,2618448,3,54375,-0,1853056
0,2731154,7,553216E-06,3,5505,-0,8177615,3,5505,0,1127947,3,5505,-0,2860151,0,2731154,9,735257E-06,3,5505,-0,9426414,3,5505,0,2578164,3,5505,-0,1853056
0,2736346,6,54612E-06,3,55725,-0,8298466,3,55725,0,1127947,3,55725,-0,306157,0,2736346,8,89601E-06,3,55725,-0,9466697,3,55725,0,2618448,3,55725,-0,1812772
0,2741539,7,888914E-06,3,564,-0,8379034,3,564,0,1127947,3,564,-0,3142138,0,2741539,7,217517E-06,3,564,-0,9386129,3,564,0,27393,3,564,-0,1812772
0,2746731,9,063859E-06,3,57075,-0,8459601,3,57075,0,1047379,3,57075,-0,3142138,0,2746731,7,553216E-06,3,57075,-0,9386129,3,57075,0,2819867,3,57075,-0,1812772
0,2751923,8,560311E-06,3,5775,-0,8580453,3,5775,0,09265278,3,5775,-0,306157,0,2751923,1,12459E-05,3,5775,-0,9386129,3,5775,0,2900435,3,5775,-0,1853056
0,2757115,8,224613E-06,3,58425,-0,8580453,3,58425,0,09265278,3,58425,-0,2940719,0,2757115,1,393149E-05,3,58425,-0,9386129,3,58425,0,2900435,3,58425,-0,1853056
0,2762308,8,224613E-06,3,591,-0,8580453,3,591,0,09265278,3,591,-0,2819867,0,2762308,1,393149E-05,3,591,-0,9386129,3,591,0,2900435,3,591,-0,1853056
0,27675,8,560311E-06,3,59775,-0,8540169,3,59775,0,09668116,3,59775,-0,2779583,0,27675,1,09102E-05,3,59775,-0,9386129,3,59775,0,2860151,3,59775,-0,1853056
0,2772692,9,903106E-06,3,6045,-0,8499885,3,6045,0,1007095,3,6045,-0,2699016,0,2772692,6,881819E-06,3,6045,-0,9305562,3,6045,0,2860151,3,6045,-0,1853056
0,2777885,1,040665E-05,3,61125,-0,8419318,3,61125,0,1087663,3,61125,-0,2658732,0,2777885,6,042573E-06,3,61125,-0,9224994,3,61125,0,2819867,3,61125,-0,1772488
0,2783077,1,05745E-05,3,618,-0,8419318,3,618,0,1087663,3,618,-0,2699016,0,2783077,7,888914E-06,3,618,-0,9305562,3,618,0,2860151,3,618,-0,1772488
0,2788269,1,242084E-05,3,62475,-0,8419318,3,62475,0,1168231,3,62475,-0,2699016,0,2788269,8,224613E-06,3,62475,-0,9345846,3,62475,0,2819867,3,62475,-0,1651637
0,2793462,1,443503E-05,3,6315,-0,8499885,3,6315,0,1168231,3,6315,-0,2779583,0,2793462,6,881819E-06,3,6315,-0,9426414,3,6315,0,2779583,3,6315,-0,1651637
0,2798654,1,376364E-05,3,63825,-0,8499885,3,63825,0,1168231,3,63825,-0,2779583,0,2798654,6,881819E-06,3,63825,-0,9426414,3,63825,0,2860151,3,63825,-0,1651637
0,2803846,1,12459E-05,3,645,-0,8419318,3,645,0,1208515,3,645,-0,27393,0,2803846,8,560311E-06,3,645,-0,9466697,3,645,0,2819867,3,645,-0,1651637
0,2809038,9,735257E-06,3,65175,-0,8419318,3,65175,0,1168231,3,65175,-0,2699016,0,2809038,1,19173E-05,3,65175,-0,9466697,3,65175,0,2860151,3,65175,-0,1611353
0,2814231,1,040665E-05,3,6585,-0,8419318,3,6585,0,1087663,3,6585,-0,2699016,0,2814231,1,292439E-05,3,6585,-0,9426414,3,6585,0,2900435,3,6585,-0,1651637
0,2819423,1,258869E-05,3,66525,-0,8499885,3,66525,0,1007095,3,66525,-0,2618448,0,2819423,1,393149E-05,3,66525,-0,9426414,3,66525,0,2900435,3,66525,-0,1732204
0,2824616,1,426719E-05,3,672,-0,8620737,3,672,0,09265278,3,672,-0,2658732,0,2824616,1,661708E-05,3,672,-0,9386129,3,672,0,3021286,3,672,-0,1651637
0,2829808,1,443503E-05,3,67875,-0,8741588,3,67875,0,0886244,3,67875,-0,2618448,0,2829808,1,460288E-05,3,67875,-0,9426414,3,67875,0,3021286,3,67875,-0,1651637
0,2835,1,376364E-05,3,6855,-0,8862439,3,6855,0,08459602,3,6855,-0,2699016,0,2835,1,258869E-05,3,6855,-0,9426414,3,6855,0,3101854,3,6855,-0,1530785
0,2840192,1,359579E-05,3,69225,-0,8822156,3,69225,0,08056764,3,69225,-0,2618448,0,2840192,1,258869E-05,3,69225,-0,9506981,3,69225,0,3101854,3,69225,-0,1571069
0,2845385,1,426719E-05,3,699,-0,8701304,3,699,0,08056764,3,699,-0,2497597,0,2845385,1,09102E-05,3,699,-0,9506981,3,699,0,3021286,3,699,-0,1530785
0,2850577,1,359579E-05,3,70575,-0,8620737,3,70575,0,08056764,3,70575,-0,2417029,0,2850577,1,05745E-05,3,70575,-0,9547265,3,70575,0,3021286,3,70575,-0,1490501
0,2855769,1,342794E-05,3,7125,-0,8580453,3,7125,0,08459602,3,7125,-0,2417029,0,2855769,1,12459E-05,3,7125,-0,9587549,3,7125,0,2940719,3,7125,-0,1530785
0,2860962,1,460288E-05,3,71925,-0,8540169,3,71925,0,09668116,3,71925,-0,2336462,0,2860962,1,12459E-05,3,71925,-0,9627832,3,71925,0,2819867,3,71925,-0,1490501
0,2866154,1,426719E-05,3,726,-0,8499885,3,726,0,09668116,3,726,-0,2457313,0,2866154,1,02388E-05,3,726,-0,9587549,3,726,0,2779583,3,726,-0,1530785
0,2871346,1,359579E-05,3,73275,-0,8459601,3,73275,0,1087663,3,73275,-0,2578164,0,2871346,1,040665E-05,3,73275,-0,9627832,3,73275,0,27393,3,73275,-0,1651637
0,2876539,1,460288E-05,3,7395,-0,8499885,3,7395,0,1087663,3,7395,-0,2699016,0,2876539,1,141375E-05,3,7395,-0,9506981,3,7395,0,27393,3,7395,-0,1651637
0,2881731,1,426719E-05,3,74625,-0,8540169,3,74625,0,1127947,3,74625,-0,2819867,0,2881731,1,225299E-05,3,74625,-0,9466697,3,74625,0,2779583,3,74625,-0,1611353
0,2886923,1,225299E-05,3,753,-0,8540169,3,753,0,1168231,3,753,-0,2779583,0,2886923,1,208515E-05,3,753,-0,9386129,3,753,0,2779583,3,753,-0,1571069
0,2892115,1,12459E-05,3,75975,-0,8540169,3,75975,0,1208515,3,75975,-0,27393,0,2892115,1,141375E-05,3,75975,-0,9386129,3,75975,0,2779583,3,75975,-0,1530785
0,2897308,1,19173E-05,3,7665,-0,8580453,3,7665,0,1208515,3,7665,-0,27393,0,2897308,1,225299E-05,3,7665,-0,9265279,3,7665,0,27393,3,7665,-0,1450217
0,29025,1,292439E-05,3,77325,-0,8459601,3,77325,0,1208515,3,77325,-0,2578164,0,29025,1,12459E-05,3,77325,-0,9265279,3,77325,0,2819867,3,77325,-0,1490501
0,2907692,1,19173E-05,3,78,-0,8419318,3,78,0,1208515,3,78,-0,2497597,0,2907692,7,721065E-06,3,78,-0,9265279,3,78,0,2819867,3,78,-0,1530785
0,2912885,8,560311E-06,3,78675,-0,8379034,3,78675,0,1127947,3,78675,-0,2537881,0,2912885,5,539025E-06,3,78675,-0,9305562,3,78675,0,2900435,3,78675,-0,1611353
0,2918077,7,888914E-06,3,7935,-0,8419318,3,7935,0,1087663,3,7935,-0,2537881,0,2918077,3,189135E-06,3,7935,-0,9386129,3,7935,0,2779583,3,7935,-0,1651637
0,2923269,1,174945E-05,3,80025,-0,8379034,3,80025,0,1047379,3,80025,-0,2618448,0,2923269,3,524834E-06,3,80025,-0,9466697,3,80025,0,2900435,3,80025,-0,1732204
0,2928461,1,628138E-05,3,807,-0,8379034,3,807,0,0886244,3,807,-0,27393,0,2928461,3,860533E-06,3,807,-0,9547265,3,807,0,2819867,3,807,-0,1893339
0,2933654,1,812772E-05,3,81375,-0,8379034,3,81375,0,0886244,3,81375,-0,2779583,0,2933654,4,196231E-06,3,81375,-0,9547265,3,81375,0,2819867,3,81375,-0,1933623
0,2938846,1,644923E-05,3,8205,-0,8459601,3,8205,0,0886244,3,8205,-0,2860151,0,2938846,5,706875E-06,3,8205,-0,9506981,3,8205,0,27393,3,8205,-0,1973907
0,2944039,1,15816E-05,3,82725,-0,8459601,3,82725,0,0886244,3,82725,-0,2940719,0,2944039,5,706875E-06,3,82725,-0,9426414,3,82725,0,2860151,3,82725,-0,1893339
0,2949231,8,89601E-06,3,834,-0,8459601,3,834,0,0886244,3,834,-0,2900435,0,2949231,2,853437E-06,3,834,-0,9345846,3,834,0,2819867,3,834,-0,1853056
0,2954423,9,903106E-06,3,84075,-0,8499885,3,84075,0,1007095,3,84075,-0,2981002,0,2954423,-6,713969E-07,3,84075,-0,9265279,3,84075,0,2779583,3,84075,-0,1732204
0,2959615,1,107805E-05,3,8475,-0,8540169,3,8475,0,1087663,3,8475,-0,2900435,0,2959615,-1,174945E-06,3,8475,-0,9305562,3,8475,0,2779583,3,8475,-0,169192
0,2964808,1,02388E-05,3,85425,-0,8580453,3,85425,0,1127947,3,85425,-0,2779583,0,2964808,1,846342E-06,3,85425,-0,9305562,3,85425,0,2779583,3,85425,-0,1651637
0,297,9,231708E-06,3,861,-0,8580453,3,861,0,1248798,3,861,-0,2699016,0,297,5,035477E-06,3,861,-0,9386129,3,861,0,27393,3,861,-0,1611353
0,2975192,7,385367E-06,3,86775,-0,8580453,3,86775,0,1248798,3,86775,-0,2658732,0,2975192,4,867628E-06,3,86775,-0,9466697,3,86775,0,2860151,3,86775,-0,1611353
0,2980385,7,217517E-06,3,8745,-0,8499885,3,8745,0,1289082,3,8745,-0,2618448,0,2980385,1,678492E-06,3,8745,-0,9627832,3,8745,0,2779583,3,8745,-0,169192
0,2985577,8,392462E-06,3,88125,-0,8459601,3,88125,0,1289082,3,88125,-0,2578164,0,2985577,3,356985E-07,3,88125,-0,9668117,3,88125,0,2860151,3,88125,-0,1651637
0,2990769,6,378271E-06,3,888,-0,833875,3,888,0,1208515,3,888,-0,27393,0,2990769,3,860533E-06,3,888,-0,9627832,3,888,0,2819867,3,888,-0,1853056
0,2995962,5,203327E-06,3,89475,-0,833875,3,89475,0,1127947,3,89475,-0,2819867,0,2995962,7,217517E-06,3,89475,-0,9627832,3,89475,0,2860151,3,89475,-0,1893339
0,3001154,6,378271E-06,3,9015,-0,8379034,3,9015,0,1007095,3,9015,-0,2900435,0,3001154,6,71397E-06,3,9015,-0,9587549,3,9015,0,2819867,3,9015,-0,1933623
0,3006346,7,553216E-06,3,90825,-0,8459601,3,90825,0,09265278,3,90825,-0,3021286,0,3006346,5,874724E-06,3,90825,-0,9506981,3,90825,0,2900435,3,90825,-0,1853056
0,3011538,8,728161E-06,3,915,-0,8580453,3,915,0,09265278,3,915,-0,306157,0,3011538,5,203327E-06,3,915,-0,9506981,3,915,0,2860151,3,915,-0,1933623
0,3016731,7,217517E-06,3,92175,-0,866102,3,92175,0,09265278,3,92175,-0,306157,0,3016731,5,706875E-06,3,92175,-0,9466697,3,92175,0,2900435,3,92175,-0,1893339
0,3021923,5,035477E-06,3,9285,-0,8701304,3,9285,0,09668116,3,9285,-0,3021286,0,3021923,6,378271E-06,3,9285,-0,9345846,3,9285,0,3021286,3,9285,-0,1853056
0,3027115,3,021286E-06,3,93525,-0,8701304,3,93525,0,09668116,3,93525,-0,2819867,0,3027115,6,881819E-06,3,93525,-0,9265279,3,93525,0,3021286,3,93525,-0,1732204
0,3032308,5,203327E-06,3,942,-0,866102,3,942,0,1007095,3,942,-0,2658732,0,3032308,6,042573E-06,3,942,-0,9265279,3,942,0,2940719,3,942,-0,169192
0,30375,8,728161E-06,3,94875,-0,8580453,3,94875,0,1007095,3,94875,-0,2497597,0,30375,6,042573E-06,3,94875,-0,9224994,3,94875,0,2900435,3,94875,-0,1611353
0,3042692,8,560311E-06,3,9555,-0,8540169,3,9555,0,1087663,3,9555,-0,2457313,0,3042692,6,378271E-06,3,9555,-0,9305562,3,9555,0,2819867,3,9555,-0,1571069
0,3047885,4,531929E-06,3,96225,-0,8580453,3,96225,0,1208515,3,96225,-0,2457313,0,3047885,7,217517E-06,3,96225,-0,9506981,3,96225,0,2699016,3,96225,-0,1530785
0,3053077,3,356985E-06,3,969,-0,8580453,3,969,0,1289082,3,969,-0,2537881,0,3053077,7,888914E-06,3,969,-0,9587549,3,969,0,2658732,3,969,-0,1450217
0,3058269,5,874724E-06,3,97575,-0,8620737,3,97575,0,1289082,3,97575,-0,2658732,0,3058269,8,224613E-06,3,97575,-0,97084,3,97575,0,2618448,3,97575,-0,1530785
0,3063461,8,89601E-06,3,9825,-0,8620737,3,9825,0,1248798,3,9825,-0,27393,0,3063461,6,881819E-06,3,9825,-0,9748684,3,9825,0,2699016,3,9825,-0,1611353
0,3068654,1,05745E-05,3,98925,-0,8540169,3,98925,0,1087663,3,98925,-0,2860151,0,3068654,5,874724E-06,3,98925,-0,9748684,3,98925,0,2779583,3,98925,-0,1651637
0,3073846,1,15816E-05,3,996,-0,8459601,3,996,0,1127947,3,996,-0,2940719,0,3073846,6,54612E-06,3,996,-0,9587549,3,996,0,2779583,3,996,-0,1732204
0,3079039,1,05745E-05,4,00275,-0,8419318,4,00275,0,1127947,4,00275,-0,2981002,0,3079039,7,217517E-06,4,00275,-0,9506981,4,00275,0,2819867,4,00275,-0,1732204
0,3084231,9,231708E-06,4,0095,-0,8459601,4,0095,0,1087663,4,0095,-0,2981002,0,3084231,4,531929E-06,4,0095,-0,9426414,4,0095,0,2940719,4,0095,-0,1853056
0,3089423,9,231708E-06,4,01625,-0,8499885,4,01625,0,1047379,4,01625,-0,2940719,0,3089423,3,021286E-06,4,01625,-0,9386129,4,01625,0,2981002,4,01625,-0,1772488
0,3094615,1,007095E-05,4,023,-0,8540169,4,023,0,09668116,4,023,-0,2779583,0,3094615,4,531929E-06,4,023,-0,9305562,4,023,0,2940719,4,023,-0,1853056
0,3099808,1,05745E-05,4,02975,-0,8540169,4,02975,0,09668116,4,02975,-0,2658732,0,3099808,5,203327E-06,4,02975,-0,9345846,4,02975,0,2860151,4,02975,-0,1893339
0,3105,1,02388E-05,4,0365,-0,8580453,4,0365,0,09265278,4,0365,-0,2537881,0,3105,4,867628E-06,4,0365,-0,9386129,4,0365,0,2860151,4,0365,-0,1812772
0,3110192,8,056764E-06,4,04325,-0,8580453,4,04325,0,0886244,4,04325,-0,2537881,0,3110192,4,531929E-06,4,04325,-0,9426414,4,04325,0,2860151,4,04325,-0,1772488
0,3115385,6,54612E-06,4,05,-0,8540169,4,05,0,08459602,4,05,-0,2497597,0,3115385,6,881819E-06,4,05,-0,9426414,4,05,0,2860151,4,05,-0,1772488
0,3120577,5,203327E-06,4,05675,-0,8540169,4,05675,0,08459602,4,05675,-0,2537881,0,3120577,9,231708E-06,4,05675,-0,9506981,4,05675,0,2940719,4,05675,-0,1651637
0,3125769,4,36408E-06,4,0635,-0,8499885,4,0635,0,09265278,4,0635,-0,2618448,0,3125769,1,02388E-05,4,0635,-0,9466697,4,0635,0,2860151,4,0635,-0,169192
0,3130962,5,203327E-06,4,07025,-0,8459601,4,07025,0,09668116,4,07025,-0,2699016,0,3130962,8,224613E-06,4,07025,-0,9466697,4,07025,0,2940719,4,07025,-0,1611353
0,3136154,8,392462E-06,4,077,-0,8499885,4,077,0,1007095,4,077,-0,27393,0,3136154,6,71397E-06,4,077,-0,9426414,4,077,0,2900435,4,077,-0,1571069
0,3141346,1,05745E-05,4,08375,-0,8540169,4,08375,0,1087663,4,08375,-0,2819867,0,3141346,5,539025E-06,4,08375,-0,9265279,4,08375,0,2940719,4,08375,-0,1571069
0,3146538,1,225299E-05,4,0905,-0,8620737,4,0905,0,1127947,4,0905,-0,2860151,0,3146538,2,853437E-06,4,0905,-0,9386129,4,0905,0,2940719,4,0905,-0,1611353
0,3151731,1,309224E-05,4,09725,-0,8580453,4,09725,0,1168231,4,09725,-0,2860151,0,3151731,1,510643E-06,4,09725,-0,9345846,4,09725,0,2860151,4,09725,-0,169192
0,3156923,1,359579E-05,4,104,-0,8580453,4,104,0,1208515,4,104,-0,2860151,0,3156923,3,021286E-06,4,104,-0,9466697,4,104,0,27393,4,104,-0,1772488
0,3162116,1,560998E-05,4,11075,-0,8499885,4,11075,0,1168231,4,11075,-0,2779583,0,3162116,3,021286E-06,4,11075,-0,9506981,4,11075,0,27393,4,11075,-0,1772488
0,3167308,1,594568E-05,4,1175,-0,8379034,4,1175,0,1127947,4,1175,-0,2779583,0,3167308,4,699778E-06,4,1175,-0,9506981,4,1175,0,2658732,4,1175,-0,1812772
0,31725,1,443503E-05,4,12425,-0,8419318,4,12425,0,1087663,4,12425,-0,2699016,0,31725,5,706875E-06,4,12425,-0,9506981,4,12425,0,2658732,4,12425,-0,1853056
0,3177692,1,359579E-05,4,131,-0,8419318,4,131,0,1087663,4,131,-0,2819867,0,3177692,3,692683E-06,4,131,-0,9506981,4,131,0,2618448,4,131,-0,1853056
0,3182885,1,359579E-05,4,13775,-0,8459601,4,13775,0,1047379,4,13775,-0,2819867,0,3182885,4,531929E-06,4,13775,-0,9466697,4,13775,0,2699016,4,13775,-0,1772488
0,3188077,1,309224E-05,4,1445,-0,8499885,4,1445,0,09668116,4,1445,-0,2779583,0,3188077,6,71397E-06,4,1445,-0,9466697,4,1445,0,2819867,4,1445,-0,1772488
0,3193269,1,326009E-05,4,15125,-0,8499885,4,15125,0,1007095,4,15125,-0,2779583,0,3193269,5,203327E-06,4,15125,-0,9386129,4,15125,0,2819867,4,15125,-0,1732204
0,3198462,1,258869E-05,4,158,-0,8499885,4,158,0,09668116,4,158,-0,27393,0,3198462,2,517739E-06,4,158,-0,9386129,4,158,0,2819867,4,158,-0,1651637
0,3203654,1,05745E-05,4,16475,-0,8540169,4,16475,0,09668116,4,16475,-0,27393,0,3203654,8,392462E-07,4,16475,-0,9305562,4,16475,0,2860151,4,16475,-0,1611353
0,3208846,1,12459E-05,4,1715,-0,8540169,4,1715,0,09668116,4,1715,-0,2658732,0,3208846,4,028382E-06,4,1715,-0,9386129,4,1715,0,2860151,4,1715,-0,169192
0,3214039,1,393149E-05,4,17825,-0,8419318,4,17825,0,1047379,4,17825,-0,2658732,0,3214039,1,19173E-05,4,17825,-0,9386129,4,17825,0,2860151,4,17825,-0,169192
0,3219231,1,577783E-05,4,185,-0,8419318,4,185,0,1127947,4,185,-0,2699016,0,3219231,1,594568E-05,4,185,-0,9466697,4,185,0,2900435,4,185,-0,169192
0,3224423,1,762417E-05,4,19175,-0,8379034,4,19175,0,1087663,4,19175,-0,27393,0,3224423,1,292439E-05,4,19175,-0,9426414,4,19175,0,2819867,4,19175,-0,1732204
0,3229615,1,930266E-05,4,1985,-0,8419318,4,1985,0,1007095,4,1985,-0,27393,0,3229615,1,05745E-05,4,1985,-0,9466697,4,1985,0,2819867,4,1985,-0,169192
0,3234808,1,695277E-05,4,20525,-0,8419318,4,20525,0,1047379,4,20525,-0,2779583,0,3234808,1,040665E-05,4,20525,-0,9506981,4,20525,0,2860151,4,20525,-0,1732204
0,324,1,393149E-05,4,212,-0,8419318,4,212,0,1007095,4,212,-0,2779583,0,324,1,258869E-05,4,212,-0,9426414,4,212,0,2819867,4,212,-0,1732204
0,3245192,1,326009E-05,4,21875,-0,8419318,4,21875,0,1047379,4,21875,-0,27393,0,3245192,1,393149E-05,4,21875,-0,9426414,4,21875,0,2860151,4,21875,-0,1732204
0,3250385,1,477073E-05,4,2255,-0,8459601,4,2255,0,1087663,4,2255,-0,2779583,0,3250385,1,292439E-05,4,2255,-0,9386129,4,2255,0,2860151,4,2255,-0,169192
0,3255577,1,393149E-05,4,23225,-0,8540169,4,23225,0,1087663,4,23225,-0,27393,0,3255577,1,19173E-05,4,23225,-0,9386129,4,23225,0,2860151,4,23225,-0,1732204
0,3260769,1,05745E-05,4,239,-0,8499885,4,239,0,1087663,4,239,-0,2658732,0,3260769,1,292439E-05,4,239,-0,9386129,4,239,0,2900435,4,239,-0,169192
0,3265962,1,19173E-05,4,24575,-0,8540169,4,24575,0,1047379,4,24575,-0,2618448,0,3265962,1,460288E-05,4,24575,-0,9426414,4,24575,0,2860151,4,24575,-0,169192
0,3271154,1,409934E-05,4,2525,-0,8620737,4,2525,0,1047379,4,2525,-0,2578164,0,3271154,1,460288E-05,4,2525,-0,9466697,4,2525,0,2860151,4,2525,-0,1732204
0,3276346,1,326009E-05,4,25925,-0,8580453,4,25925,0,1047379,4,25925,-0,2618448,0,3276346,1,460288E-05,4,25925,-0,9506981,4,25925,0,2860151,4,25925,-0,169192
0,3281538,1,107805E-05,4,266,-0,8540169,4,266,0,1007095,4,266,-0,2658732,0,3281538,1,409934E-05,4,266,-0,9547265,4,266,0,2860151,4,266,-0,1651637
0,3286731,1,007095E-05,4,27275,-0,8540169,4,27275,0,1047379,4,27275,-0,2699016,0,3286731,1,326009E-05,4,27275,-0,9587549,4,27275,0,2860151,4,27275,-0,1571069
0,3291923,9,735257E-06,4,2795,-0,8580453,4,2795,0,1047379,4,2795,-0,2699016,0,3291923,1,258869E-05,4,2795,-0,9547265,4,2795,0,2860151,4,2795,-0,1651637
0,3297116,9,903106E-06,4,28625,-0,8620737,4,28625,0,1047379,4,28625,-0,2658732,0,3297116,1,09102E-05,4,28625,-0,9547265,4,28625,0,2860151,4,28625,-0,1651637
0,3302308,1,05745E-05,4,293,-0,8701304,4,293,0,1007095,4,293,-0,27393,0,3302308,1,05745E-05,4,293,-0,9547265,4,293,0,2819867,4,293,-0,1611353
0,33075,1,05745E-05,4,29975,-0,8701304,4,29975,0,1047379,4,29975,-0,2699016,0,33075,1,05745E-05,4,29975,-0,9587549,4,29975,0,2900435,4,29975,-0,1571069
0,3312692,1,05745E-05,4,3065,-0,8701304,4,3065,0,1047379,4,3065,-0,2779583,0,3312692,1,174945E-05,4,3065,-0,9587549,4,3065,0,2819867,4,3065,-0,1651637
0,3317885,1,05745E-05,4,31325,-0,8701304,4,31325,0,1047379,4,31325,-0,2699016,0,3317885,1,19173E-05,4,31325,-0,9547265,4,31325,0,2860151,4,31325,-0,169192
0,3323077,1,107805E-05,4,32,-0,8620737,4,32,0,1047379,4,32,-0,27393,0,3323077,1,040665E-05,4,32,-0,9547265,4,32,0,2779583,4,32,-0,1732204
0,3328269,1,258869E-05,4,32675,-0,8580453,4,32675,0,1047379,4,32675,-0,27393,0,3328269,6,210422E-06,4,32675,-0,9587549,4,32675,0,27393,4,32675,-0,1772488
0,3333462,1,292439E-05,4,3335,-0,8540169,4,3335,0,1087663,4,3335,-0,2779583,0,3333462,4,36408E-06,4,3335,-0,9547265,4,3335,0,27393,4,3335,-0,1732204
0,3338654,1,107805E-05,4,34025,-0,8540169,4,34025,0,1127947,4,34025,-0,27393,0,3338654,6,378271E-06,4,34025,-0,9506981,4,34025,0,2699016,4,34025,-0,1732204
0,3343846,9,567407E-06,4,347,-0,8419318,4,347,0,1087663,4,347,-0,2779583,0,3343846,9,231708E-06,4,347,-0,9506981,4,347,0,27393,4,347,-0,169192
0,3349038,9,063859E-06,4,35375,-0,8419318,4,35375,0,1168231,4,35375,-0,2819867,0,3349038,1,05745E-05,4,35375,-0,9426414,4,35375,0,2699016,4,35375,-0,169192
0,3354231,1,007095E-05,4,3605,-0,8379034,4,3605,0,1168231,4,3605,-0,27393,0,3354231,9,231708E-06,4,3605,-0,9305562,4,3605,0,2699016,4,3605,-0,169192
0,3359423,1,15816E-05,4,36725,-0,8379034,4,36725,0,1208515,4,36725,-0,27393,0,3359423,7,049668E-06,4,36725,-0,9386129,4,36725,0,2779583,4,36725,-0,1530785
0,3364615,1,12459E-05,4,374,-0,8419318,4,374,0,1168231,4,374,-0,2699016,0,3364615,6,54612E-06,4,374,-0,9426414,4,374,0,2819867,4,374,-0,1571069
0,3369808,8,560311E-06,4,38075,-0,8419318,4,38075,0,1127947,4,38075,-0,27393,0,3369808,6,54612E-06,4,38075,-0,9426414,4,38075,0,2860151,4,38075,-0,1571069
0,3375,7,553216E-06,4,3875,-0,8419318,4,3875,0,1127947,4,3875,-0,27393,0,3375,8,560311E-06,4,3875,-0,9345846,4,3875,0,2819867,4,3875,-0,1651637
0,3380192,9,063859E-06,4,39425,-0,8459601,4,39425,0,1087663,4,39425,-0,27393,0,3380192,1,007095E-05,4,39425,-0,9345846,4,39425,0,27393,4,39425,-0,1611353
0,3385385,1,258869E-05,4,401,-0,8499885,4,401,0,1047379,4,401,-0,2699016,0,3385385,1,19173E-05,4,401,-0,9305562,4,401,0,27393,4,401,-0,1651637
0,3390577,1,15816E-05,4,40775,-0,8499885,4,40775,0,1087663,4,40775,-0,2658732,0,3390577,1,376364E-05,4,40775,-0,9506981,4,40775,0,2658732,4,40775,-0,1571069
0,3395769,6,881819E-06,4,4145,-0,8499885,4,4145,0,1087663,4,4145,-0,27393,0,3395769,1,309224E-05,4,4145,-0,9426414,4,4145,0,2699016,4,4145,-0,169192
0,3400961,7,553216E-06,4,42125,-0,8499885,4,42125,0,1047379,4,42125,-0,27393,0,3400961,1,074235E-05,4,42125,-0,9426414,4,42125,0,27393,4,42125,-0,1732204
0,3406154,1,19173E-05,4,428,-0,8580453,4,428,0,1007095,4,428,-0,2819867,0,3406154,7,217517E-06,4,428,-0,9506981,4,428,0,2779583,4,428,-0,1812772
0,3411346,1,275654E-05,4,43475,-0,8620737,4,43475,0,1007095,4,43475,-0,2900435,0,3411346,5,035477E-06,4,43475,-0,9506981,4,43475,0,2860151,4,43475,-0,1893339
0,3416539,1,258869E-05,4,4415,-0,8580453,4,4415,0,1007095,4,4415,-0,2860151,0,3416539,5,203327E-06,4,4415,-0,9547265,4,4415,0,2819867,4,4415,-0,1812772
0,3421731,1,05745E-05,4,44825,-0,8540169,4,44825,0,1047379,4,44825,-0,2819867,0,3421731,5,203327E-06,4,44825,-0,9506981,4,44825,0,2860151,4,44825,-0,1853056
0,3426923,9,903106E-06,4,455,-0,8540169,4,455,0,09668116,4,455,-0,27393,0,3426923,4,531929E-06,4,455,-0,9547265,4,455,0,2900435,4,455,-0,1732204
0,3432115,1,19173E-05,4,46175,-0,8540169,4,46175,0,1047379,4,46175,-0,2699016,0,3432115,3,524834E-06,4,46175,-0,9547265,4,46175,0,2940719,4,46175,-0,1772488
0,3437308,1,393149E-05,4,4685,-0,8540169,4,4685,0,1007095,4,4685,-0,2618448,0,3437308,3,692683E-06,4,4685,-0,9506981,4,4685,0,2900435,4,4685,-0,169192
0,34425,1,460288E-05,4,47525,-0,8540169,4,47525,0,1007095,4,47525,-0,2618448,0,34425,3,860533E-06,4,47525,-0,9506981,4,47525,0,2900435,4,47525,-0,1651637
0,3447692,1,393149E-05,4,482,-0,8540169,4,482,0,1047379,4,482,-0,2658732,0,3447692,3,692683E-06,4,482,-0,9466697,4,482,0,2819867,4,482,-0,1732204
0,3452885,1,242084E-05,4,48875,-0,8499885,4,48875,0,1127947,4,48875,-0,2699016,0,3452885,3,860533E-06,4,48875,-0,9386129,4,48875,0,2860151,4,48875,-0,1611353
0,3458077,9,399557E-06,4,4955,-0,8499885,4,4955,0,1087663,4,4955,-0,2699016,0,3458077,4,867628E-06,4,4955,-0,9386129,4,4955,0,2819867,4,4955,-0,169192
0,3463269,7,217517E-06,4,50225,-0,8499885,4,50225,0,1127947,4,50225,-0,2699016,0,3463269,6,378271E-06,4,50225,-0,9305562,4,50225,0,2860151,4,50225,-0,1611353
0,3468462,6,378271E-06,4,509,-0,8459601,4,509,0,1127947,4,509,-0,2658732,0,3468462,7,217517E-06,4,509,-0,9265279,4,509,0,2860151,4,509,-0,1611353
0,3473654,8,560311E-06,4,51575,-0,8499885,4,51575,0,1087663,4,51575,-0,27393,0,3473654,6,042573E-06,4,51575,-0,9265279,4,51575,0,2900435,4,51575,-0,1651637
0,3478846,1,09102E-05,4,5225,-0,8459601,4,5225,0,1127947,4,5225,-0,27393,0,3478846,5,874724E-06,4,5225,-0,9345846,4,5225,0,2819867,4,5225,-0,1611353
0,3484038,1,258869E-05,4,52925,-0,8499885,4,52925,0,1127947,4,52925,-0,27393,0,3484038,1,02388E-05,4,52925,-0,9386129,4,52925,0,2860151,4,52925,-0,169192
0,3489231,1,460288E-05,4,536,-0,8419318,4,536,0,1168231,4,536,-0,27393,0,3489231,1,292439E-05,4,536,-0,9426414,4,536,0,2860151,4,536,-0,1732204
0,3494423,1,628138E-05,4,54275,-0,8419318,4,54275,0,1127947,4,54275,-0,27393,0,3494423,1,19173E-05,4,54275,-0,9466697,4,54275,0,2860151,4,54275,-0,1772488
0,3499615,1,594568E-05,4,5495,-0,8379034,4,5495,0,1087663,4,5495,-0,2779583,0,3499615,1,02388E-05,4,5495,-0,9426414,4,5495,0,2819867,4,5495,-0,1772488
0,3504808,1,242084E-05,4,55625,-0,8379034,4,55625,0,1007095,4,55625,-0,2819867,0,3504808,9,567407E-06,4,55625,-0,9506981,4,55625,0,2779583,4,55625,-0,1853056
0,351,1,19173E-05,4,563,-0,8419318,4,563,0,0886244,4,563,-0,2819867,0,351,1,19173E-05,4,563,-0,9506981,4,563,0,2779583,4,563,-0,1853056
0,3515192,1,141375E-05,4,56975,-0,8459601,4,56975,0,08459602,4,56975,-0,27393,0,3515192,1,292439E-05,4,56975,-0,9466697,4,56975,0,2779583,4,56975,-0,1772488
0,3520385,1,05745E-05,4,5765,-0,8499885,4,5765,0,08459602,4,5765,-0,2819867,0,3520385,1,326009E-05,4,5765,-0,9426414,4,5765,0,27393,4,5765,-0,1812772
0,3525577,9,567407E-06,4,58325,-0,8499885,4,58325,0,0886244,4,58325,-0,2779583,0,3525577,1,409934E-05,4,58325,-0,9426414,4,58325,0,2819867,4,58325,-0,169192
0,3530769,8,392462E-06,4,59,-0,8499885,4,59,0,09265278,4,59,-0,2699016,0,3530769,1,695277E-05,4,59,-0,9426414,4,59,0,2779583,4,59,-0,1651637
0,3535962,9,567407E-06,4,59675,-0,8499885,4,59675,0,1007095,4,59675,-0,27393,0,3535962,1,863126E-05,4,59675,-0,9426414,4,59675,0,2860151,4,59675,-0,169192
0,3541154,1,12459E-05,4,6035,-0,8540169,4,6035,0,1047379,4,6035,-0,2699016,0,3541154,1,661708E-05,4,6035,-0,9386129,4,6035,0,2779583,4,6035,-0,169192
0,3546346,1,05745E-05,4,61025,-0,8499885,4,61025,0,1127947,4,61025,-0,2658732,0,3546346,1,326009E-05,4,61025,-0,9426414,4,61025,0,2819867,4,61025,-0,1651637
0,3551539,1,09102E-05,4,617,-0,8540169,4,617,0,1127947,4,617,-0,2658732,0,3551539,1,107805E-05,4,617,-0,9466697,4,617,0,2819867,4,617,-0,1732204
0,3556731,1,12459E-05,4,62375,-0,8459601,4,62375,0,1127947,4,62375,-0,2618448,0,3556731,1,074235E-05,4,62375,-0,9466697,4,62375,0,2860151,4,62375,-0,1651637
0,3561923,9,567407E-06,4,6305,-0,8459601,4,6305,0,1127947,4,6305,-0,2618448,0,3561923,1,05745E-05,4,6305,-0,9426414,4,6305,0,2819867,4,6305,-0,1651637
0,3567115,9,567407E-06,4,63725,-0,8379034,4,63725,0,1127947,4,63725,-0,2618448,0,3567115,7,553216E-06,4,63725,-0,9386129,4,63725,0,2900435,4,63725,-0,1651637
0,3572308,1,275654E-05,4,644,-0,8379034,4,644,0,1127947,4,644,-0,2658732,0,3572308,5,035477E-06,4,644,-0,9305562,4,644,0,2819867,4,644,-0,1651637
0,35775,1,527428E-05,4,65075,-0,8459601,4,65075,0,1127947,4,65075,-0,2699016,0,35775,3,524834E-06,4,65075,-0,9345846,4,65075,0,2819867,4,65075,-0,1611353
0,3582692,1,594568E-05,4,6575,-0,8499885,4,6575,0,1087663,4,6575,-0,2658732,0,3582692,3,189135E-06,4,6575,-0,9386129,4,6575,0,2819867,4,6575,-0,1651637
0,3587885,1,359579E-05,4,66425,-0,8499885,4,66425,0,1127947,4,66425,-0,2699016,0,3587885,6,210422E-06,4,66425,-0,9345846,4,66425,0,2779583,4,66425,-0,1571069
0,3593077,1,225299E-05,4,671,-0,8620737,4,671,0,1047379,4,671,-0,27393,0,3593077,8,224613E-06,4,671,-0,9466697,4,671,0,2819867,4,671,-0,1611353
0,3598269,1,326009E-05,4,67775,-0,8620737,4,67775,0,1047379,4,67775,-0,2699016,0,3598269,7,049668E-06,4,67775,-0,9506981,4,67775,0,2819867,4,67775,-0,1611353
0,3603462,1,426719E-05,4,6845,-0,866102,4,6845,0,1047379,4,6845,-0,27393,0,3603462,5,203327E-06,4,6845,-0,9547265,4,6845,0,2819867,4,6845,-0,169192
0,3608654,1,443503E-05,4,69125,-0,8620737,4,69125,0,1087663,4,69125,-0,2779583,0,3608654,3,692683E-06,4,69125,-0,9587549,4,69125,0,2819867,4,69125,-0,169192
0,3613846,1,376364E-05,4,698,-0,866102,4,698,0,1127947,4,698,-0,2779583,0,3613846,2,517739E-06,4,698,-0,9627832,4,698,0,2900435,4,698,-0,1732204
0,3619038,1,225299E-05,4,70475,-0,866102,4,70475,0,1168231,4,70475,-0,2779583,0,3619038,4,36408E-06,4,70475,-0,9668117,4,70475,0,2900435,4,70475,-0,1732204
0,3624231,1,12459E-05,4,7115,-0,8620737,4,7115,0,1208515,4,7115,-0,27393,0,3624231,7,553216E-06,4,7115,-0,9627832,4,7115,0,2860151,4,7115,-0,1732204
0,3629423,1,02388E-05,4,71825,-0,866102,4,71825,0,1168231,4,71825,-0,2779583,0,3629423,1,007095E-05,4,71825,-0,9627832,4,71825,0,2860151,4,71825,-0,1772488
0,3634616,9,567407E-06,4,725,-0,8620737,4,725,0,1127947,4,725,-0,27393,0,3634616,1,05745E-05,4,725,-0,9627832,4,725,0,2900435,4,725,-0,1812772
0,3639808,1,09102E-05,4,73175,-0,8580453,4,73175,0,1127947,4,73175,-0,27393,0,3639808,1,05745E-05,4,73175,-0,9506981,4,73175,0,2860151,4,73175,-0,1732204
0,3645,1,19173E-05,4,7385,-0,8540169,4,7385,0,1087663,4,7385,-0,2819867,0,3645,9,735257E-06,4,7385,-0,9386129,4,7385,0,2860151,4,7385,-0,1732204
0,3650192,1,12459E-05,4,74525,-0,8459601,4,74525,0,1047379,4,74525,-0,27393,0,3650192,1,040665E-05,4,74525,-0,9386129,4,74525,0,2860151,4,74525,-0,1611353
0,3655385,1,040665E-05,4,752,-0,8540169,4,752,0,1047379,4,752,-0,27393,0,3655385,1,242084E-05,4,752,-0,9386129,4,752,0,2860151,4,752,-0,1651637
0,3660577,8,224613E-06,4,75875,-0,8499885,4,75875,0,1087663,4,75875,-0,2779583,0,3660577,1,359579E-05,4,75875,-0,9386129,4,75875,0,2819867,4,75875,-0,1571069
0,3665769,6,210422E-06,4,7655,-0,8459601,4,7655,0,1007095,4,7655,-0,2779583,0,3665769,1,326009E-05,4,7655,-0,9345846,4,7655,0,2779583,4,7655,-0,1651637
0,3670962,8,728161E-06,4,77225,-0,8459601,4,77225,0,1007095,4,77225,-0,27393,0,3670962,1,12459E-05,4,77225,-0,9345846,4,77225,0,2779583,4,77225,-0,1651637
0,3676154,1,19173E-05,4,779,-0,8459601,4,779,0,1007095,4,779,-0,27393,0,3676154,1,09102E-05,4,779,-0,9386129,4,779,0,2779583,4,779,-0,1732204
0,3681346,1,258869E-05,4,78575,-0,8379034,4,78575,0,09668116,4,78575,-0,2699016,0,3681346,9,903106E-06,4,78575,-0,9466697,4,78575,0,27393,4,78575,-0,1732204
0,3686539,1,242084E-05,4,7925,-0,8459601,4,7925,0,1047379,4,7925,-0,2779583,0,3686539,9,735257E-06,4,7925,-0,9466697,4,7925,0,2819867,4,7925,-0,1812772
0,3691731,1,19173E-05,4,79925,-0,8419318,4,79925,0,1007095,4,79925,-0,2779583,0,3691731,1,09102E-05,4,79925,-0,9506981,4,79925,0,2819867,4,79925,-0,1893339
0,3696923,1,19173E-05,4,806,-0,8459601,4,806,0,1007095,4,806,-0,2779583,0,3696923,1,326009E-05,4,806,-0,9506981,4,806,0,2819867,4,806,-0,1933623
0,3702115,9,903106E-06,4,81275,-0,8540169,4,81275,0,1007095,4,81275,-0,2779583,0,3702115,1,443503E-05,4,81275,-0,9466697,4,81275,0,2779583,4,81275,-0,1933623
0,3707308,8,560311E-06,4,8195,-0,8580453,4,8195,0,1047379,4,8195,-0,2819867,0,3707308,1,258869E-05,4,8195,-0,9506981,4,8195,0,27393,4,8195,-0,1893339
0,37125,8,560311E-06,4,82625,-0,866102,4,82625,0,1007095,4,82625,-0,2779583,0,37125,9,903106E-06,4,82625,-0,9547265,4,82625,0,2779583,4,82625,-0,1732204
0,3717692,8,89601E-06,4,833,-0,8620737,4,833,0,1007095,4,833,-0,2819867,0,3717692,9,063859E-06,4,833,-0,9506981,4,833,0,27393,4,833,-0,1732204
0,3722885,7,553216E-06,4,83975,-0,866102,4,83975,0,1007095,4,83975,-0,2819867,0,3722885,1,15816E-05,4,83975,-0,9506981,4,83975,0,2699016,4,83975,-0,1611353
0,3728077,6,210422E-06,4,8465,-0,8580453,4,8465,0,1007095,4,8465,-0,2779583,0,3728077,1,12459E-05,4,8465,-0,9506981,4,8465,0,27393,4,8465,-0,1571069
0,3733269,6,210422E-06,4,85325,-0,8499885,4,85325,0,1047379,4,85325,-0,2699016,0,3733269,8,224613E-06,4,85325,-0,9426414,4,85325,0,2699016,4,85325,-0,1490501
0,3738461,7,553216E-06,4,86,-0,8459601,4,86,0,1087663,4,86,-0,2658732,0,3738461,8,560311E-06,4,86,-0,9426414,4,86,0,27393,4,86,-0,1571069
0,3743654,8,728161E-06,4,86675,-0,8379034,4,86675,0,1208515,4,86675,-0,2699016,0,3743654,9,735257E-06,4,86675,-0,9466697,4,86675,0,27393,4,86675,-0,1651637
0,3748846,9,735257E-06,4,8735,-0,8419318,4,8735,0,1208515,4,8735,-0,2699016,0,3748846,1,09102E-05,4,8735,-0,9386129,4,8735,0,2900435,4,8735,-0,169192
0,3754039,9,063859E-06,4,88025,-0,8419318,4,88025,0,1168231,4,88025,-0,27393,0,3754039,1,09102E-05,4,88025,-0,9386129,4,88025,0,2860151,4,88025,-0,1732204
0,3759231,8,560311E-06,4,887,-0,8499885,4,887,0,1208515,4,887,-0,2819867,0,3759231,8,056764E-06,4,887,-0,9426414,4,887,0,2981002,4,887,-0,1772488
0,3764423,7,888914E-06,4,89375,-0,8499885,4,89375,0,1168231,4,89375,-0,2779583,0,3764423,4,699778E-06,4,89375,-0,9386129,4,89375,0,3021286,4,89375,-0,1772488
0,3769615,7,217517E-06,4,9005,-0,8580453,4,9005,0,1087663,4,9005,-0,27393,0,3769615,5,035477E-06,4,9005,-0,9426414,4,9005,0,3021286,4,9005,-0,1732204
0,3774808,9,063859E-06,4,90725,-0,8580453,4,90725,0,1047379,4,90725,-0,27393,0,3774808,7,721065E-06,4,90725,-0,9426414,4,90725,0,3021286,4,90725,-0,1772488
0,378,1,12459E-05,4,914,-0,8620737,4,914,0,1047379,4,914,-0,2618448,0,378,9,735257E-06,4,914,-0,9426414,4,914,0,3021286,4,914,-0,1732204
0,3785192,1,208515E-05,4,92075,-0,8620737,4,92075,0,1007095,4,92075,-0,2618448,0,3785192,8,224613E-06,4,92075,-0,9466697,4,92075,0,2940719,4,92075,-0,169192
0,3790385,1,275654E-05,4,9275,-0,8540169,4,9275,0,09668116,4,9275,-0,2578164,0,3790385,6,210422E-06,4,9275,-0,9506981,4,9275,0,2940719,4,9275,-0,1732204
0,3795577,1,225299E-05,4,93425,-0,8540169,4,93425,0,09265278,4,93425,-0,2578164,0,3795577,6,71397E-06,4,93425,-0,9466697,4,93425,0,2940719,4,93425,-0,1651637
0,3800769,1,02388E-05,4,941,-0,8459601,4,941,0,09265278,4,941,-0,2537881,0,3800769,7,553216E-06,4,941,-0,9547265,4,941,0,2981002,4,941,-0,1611353
0,3805962,1,007095E-05,4,94775,-0,8419318,4,94775,0,09265278,4,94775,-0,2578164,0,3805962,5,203327E-06,4,94775,-0,9466697,4,94775,0,2940719,4,94775,-0,1611353
0,3811154,1,05745E-05,4,9545,-0,8419318,4,9545,0,08459602,4,9545,-0,2618448,0,3811154,4,36408E-06,4,9545,-0,9426414,4,9545,0,2940719,4,9545,-0,1651637
0,3816346,1,19173E-05,4,96125,-0,8419318,4,96125,0,08459602,4,96125,-0,2699016,0,3816346,6,881819E-06,4,96125,-0,9426414,4,96125,0,2940719,4,96125,-0,1651637
0,3821538,1,19173E-05,4,968,-0,8499885,4,968,0,0886244,4,968,-0,2779583,0,3821538,9,567407E-06,4,968,-0,9466697,4,968,0,2900435,4,968,-0,1651637
0,3826731,9,399557E-06,4,97475,-0,8499885,4,97475,0,09668116,4,97475,-0,2779583,0,3826731,9,567407E-06,4,97475,-0,9466697,4,97475,0,2860151,4,97475,-0,1611353
0,3831923,8,89601E-06,4,9815,-0,8499885,4,9815,0,1007095,4,9815,-0,27393,0,3831923,7,217517E-06,4,9815,-0,9426414,4,9815,0,2779583,4,9815,-0,1611353
0,3837115,1,09102E-05,4,98825,-0,8580453,4,98825,0,1087663,4,98825,-0,2658732,0,3837115,3,860533E-06,4,98825,-0,9466697,4,98825,0,27393,4,98825,-0,1571069
0,3842308,1,225299E-05,4,995,-0,8580453,4,995,0,1168231,4,995,-0,2658732,0,3842308,6,378271E-06,4,995,-0,9506981,4,995,0,27393,4,995,-0,169192
0,38475,1,242084E-05,5,00175,-0,8499885,5,00175,0,1127947,5,00175,-0,2618448,0,38475,9,231708E-06,5,00175,-0,9547265,5,00175,0,2699016,5,00175,-0,1732204
0,3852692,1,12459E-05,5,0085,-0,8580453,5,0085,0,1127947,5,0085,-0,2658732,0,3852692,7,553216E-06,5,0085,-0,9466697,5,0085,0,2618448,5,0085,-0,1732204
0,3857885,8,89601E-06,5,01525,-0,8540169,5,01525,0,1168231,5,01525,-0,2658732,0,3857885,6,881819E-06,5,01525,-0,9547265,5,01525,0,2618448,5,01525,-0,169192
0,3863077,9,231708E-06,5,022,-0,8540169,5,022,0,1087663,5,022,-0,27393,0,3863077,8,89601E-06,5,022,-0,9466697,5,022,0,2658732,5,022,-0,169192
0,3868269,1,19173E-05,5,02875,-0,8540169,5,02875,0,1127947,5,02875,-0,2779583,0,3868269,8,224613E-06,5,02875,-0,9506981,5,02875,0,27393,5,02875,-0,1611353
0,3873461,1,443503E-05,5,0355,-0,8459601,5,0355,0,1087663,5,0355,-0,2779583,0,3873461,7,721065E-06,5,0355,-0,9506981,5,0355,0,2779583,5,0355,-0,1611353
0,3878654,1,460288E-05,5,04225,-0,8419318,5,04225,0,1087663,5,04225,-0,2819867,0,3878654,1,007095E-05,5,04225,-0,9386129,5,04225,0,2819867,5,04225,-0,1651637
0,3883846,1,292439E-05,5,049,-0,8459601,5,049,0,1127947,5,049,-0,2779583,0,3883846,1,15816E-05,5,049,-0,9345846,5,049,0,2779583,5,049,-0,1651637
0,3889039,1,05745E-05,5,05575,-0,8419318,5,05575,0,1087663,5,05575,-0,27393,0,3889039,1,15816E-05,5,05575,-0,9305562,5,05575,0,2860151,5,05575,-0,169192
0,3894231,9,903106E-06,5,0625,-0,8419318,5,0625,0,1047379,5,0625,-0,2699016,0,3894231,9,231708E-06,5,0625,-0,9305562,5,0625,0,2940719,5,0625,-0,1651637
0,3899423,1,15816E-05,5,06925,-0,8459601,5,06925,0,1047379,5,06925,-0,2699016,0,3899423,7,553216E-06,5,06925,-0,9345846,5,06925,0,2981002,5,06925,-0,1732204
0,3904615,1,19173E-05,5,076,-0,8459601,5,076,0,1007095,5,076,-0,2618448,0,3904615,8,224613E-06,5,076,-0,9345846,5,076,0,3021286,5,076,-0,169192
0,3909808,1,02388E-05,5,08275,-0,8459601,5,08275,0,1007095,5,08275,-0,2658732,0,3909808,1,05745E-05,5,08275,-0,9345846,5,08275,0,3021286,5,08275,-0,1651637
0,3915,9,735257E-06,5,0895,-0,8499885,5,0895,0,09668116,5,0895,-0,2578164,0,3915,9,735257E-06,5,0895,-0,9345846,5,0895,0,2940719,5,0895,-0,1651637
0,3920192,9,903106E-06,5,09625,-0,8419318,5,09625,0,09668116,5,09625,-0,2618448,0,3920192,6,54612E-06,5,09625,-0,9426414,5,09625,0,2900435,5,09625,-0,169192
0,3925385,1,05745E-05,5,103,-0,8459601,5,103,0,1047379,5,103,-0,2618448,0,3925385,5,539025E-06,5,103,-0,9426414,5,103,0,2819867,5,103,-0,1651637
0,3930577,8,560311E-06,5,10975,-0,8459601,5,10975,0,1047379,5,10975,-0,2658732,0,3930577,7,385367E-06,5,10975,-0,9466697,5,10975,0,2779583,5,10975,-0,169192
0,3935769,5,874724E-06,5,1165,-0,8580453,5,1165,0,1047379,5,1165,-0,2658732,0,3935769,9,903106E-06,5,1165,-0,9426414,5,1165,0,27393,5,1165,-0,1651637
0,3940962,5,706875E-06,5,12325,-0,866102,5,12325,0,1007095,5,12325,-0,2699016,0,3940962,9,231708E-06,5,12325,-0,9466697,5,12325,0,2779583,5,12325,-0,169192
0,3946154,6,54612E-06,5,13,-0,8701304,5,13,0,1047379,5,13,-0,27393,0,3946154,6,881819E-06,5,13,-0,9506981,5,13,0,2860151,5,13,-0,169192
0,3951346,8,560311E-06,5,13675,-0,8701304,5,13675,0,1087663,5,13675,-0,27393,0,3951346,6,54612E-06,5,13675,-0,9466697,5,13675,0,2900435,5,13675,-0,1651637
0,3956538,1,02388E-05,5,1435,-0,866102,5,1435,0,1087663,5,1435,-0,2699016,0,3956538,7,888914E-06,5,1435,-0,9547265,5,1435,0,2981002,5,1435,-0,1611353
0,3961731,7,721065E-06,5,15025,-0,8620737,5,15025,0,1127947,5,15025,-0,2618448,0,3961731,7,217517E-06,5,15025,-0,9587549,5,15025,0,306157,5,15025,-0,1651637
0,3966923,5,539025E-06,5,157,-0,8620737,5,157,0,1127947,5,157,-0,2618448,0,3966923,5,874724E-06,5,157,-0,9547265,5,157,0,2981002,5,157,-0,1530785
0,3972116,6,042573E-06,5,16375,-0,8580453,5,16375,0,1127947,5,16375,-0,2578164,0,3972116,6,881819E-06,5,16375,-0,9547265,5,16375,0,2940719,5,16375,-0,1530785
0,3977308,8,560311E-06,5,1705,-0,8540169,5,1705,0,1087663,5,1705,-0,2537881,0,3977308,7,553216E-06,5,1705,-0,9547265,5,1705,0,2900435,5,1705,-0,1530785
0,39825,1,12459E-05,5,17725,-0,8499885,5,17725,0,1087663,5,17725,-0,2578164,0,39825,6,54612E-06,5,17725,-0,9547265,5,17725,0,2860151,5,17725,-0,1571069
0,3987692,1,225299E-05,5,184,-0,8499885,5,184,0,1127947,5,184,-0,2699016,0,3987692,4,699778E-06,5,184,-0,9466697,5,184,0,2860151,5,184,-0,1611353
0,3992885,1,258869E-05,5,19075,-0,8419318,5,19075,0,1087663,5,19075,-0,2658732,0,3992885,5,706875E-06,5,19075,-0,9466697,5,19075,0,2699016,5,19075,-0,1611353
0,3998077,1,258869E-05,5,1975,-0,8459601,5,1975,0,1087663,5,1975,-0,2699016,0,3998077,7,217517E-06,5,1975,-0,9426414,5,1975,0,2699016,5,1975,-0,1651637
0,4003269,1,225299E-05,5,20425,-0,8459601,5,20425,0,1127947,5,20425,-0,2699016,0,4003269,7,217517E-06,5,20425,-0,9345846,5,20425,0,27393,5,20425,-0,1611353
0,4008462,1,007095E-05,5,211,-0,8459601,5,211,0,1087663,5,211,-0,2819867,0,4008462,5,539025E-06,5,211,-0,9345846,5,211,0,27393,5,211,-0,169192
0,4013654,9,231708E-06,5,21775,-0,8459601,5,21775,0,1127947,5,21775,-0,27393,0,4013654,3,021286E-06,5,21775,-0,9386129,5,21775,0,2699016,5,21775,-0,1571069
0,4018846,9,903106E-06,5,2245,-0,8459601,5,2245,0,1127947,5,2245,-0,2779583,0,4018846,1,174945E-06,5,2245,-0,9386129,5,2245,0,2699016,5,2245,-0,169192
0,4024039,1,007095E-05,5,23125,-0,8459601,5,23125,0,1168231,5,23125,-0,2779583,0,4024039,4,196231E-06,5,23125,-0,9466697,5,23125,0,2699016,5,23125,-0,169192
0,4029231,1,02388E-05,5,238,-0,8540169,5,238,0,1168231,5,238,-0,2819867,0,4029231,5,203327E-06,5,238,-0,9506981,5,238,0,2699016,5,238,-0,1772488
0,4034423,1,040665E-05,5,24475,-0,8499885,5,24475,0,1168231,5,24475,-0,27393,0,4034423,5,035477E-06,5,24475,-0,9426414,5,24475,0,2779583,5,24475,-0,169192
0,4039615,1,15816E-05,5,2515,-0,8499885,5,2515,0,1127947,5,2515,-0,2779583,0,4039615,4,867628E-06,5,2515,-0,9426414,5,2515,0,2658732,5,2515,-0,1732204
0,4044808,1,326009E-05,5,25825,-0,8459601,5,25825,0,1127947,5,25825,-0,2779583,0,4044808,7,553216E-06,5,25825,-0,9426414,5,25825,0,2699016,5,25825,-0,169192
0,405,1,393149E-05,5,265,-0,8419318,5,265,0,1127947,5,265,-0,2699016,0,405,1,19173E-05,5,265,-0,9386129,5,265,0,2779583,5,265,-0,1611353
0,4055192,1,19173E-05,5,27175,-0,8419318,5,27175,0,1047379,5,27175,-0,27393,0,4055192,1,258869E-05,5,27175,-0,9426414,5,27175,0,2779583,5,27175,-0,1611353
0,4060385,1,15816E-05,5,2785,-0,8459601,5,2785,0,1007095,5,2785,-0,27393,0,4060385,1,05745E-05,5,2785,-0,9426414,5,2785,0,2900435,5,2785,-0,169192
0,4065577,1,174945E-05,5,28525,-0,8499885,5,28525,0,1007095,5,28525,-0,2699016,0,4065577,9,399557E-06,5,28525,-0,9426414,5,28525,0,2940719,5,28525,-0,169192
0,4070769,1,258869E-05,5,292,-0,8499885,5,292,0,1007095,5,292,-0,27393,0,4070769,9,567407E-06,5,292,-0,9466697,5,292,0,3021286,5,292,-0,1772488
0,4075962,1,426719E-05,5,29875,-0,8540169,5,29875,0,09668116,5,29875,-0,2699016,0,4075962,1,05745E-05,5,29875,-0,9345846,5,29875,0,3101854,5,29875,-0,169192
0,4081154,1,460288E-05,5,3055,-0,8620737,5,3055,0,1087663,5,3055,-0,2658732,0,4081154,1,292439E-05,5,3055,-0,9426414,5,3055,0,306157,5,3055,-0,1732204
0,4086346,1,309224E-05,5,31225,-0,866102,5,31225,0,1047379,5,31225,-0,2658732,0,4086346,1,309224E-05,5,31225,-0,9466697,5,31225,0,306157,5,31225,-0,1772488
0,4091538,1,258869E-05,5,319,-0,866102,5,319,0,1047379,5,319,-0,2618448,0,4091538,1,05745E-05,5,319,-0,9466697,5,319,0,3021286,5,319,-0,1732204
0,4096731,1,040665E-05,5,32575,-0,8620737,5,32575,0,1087663,5,32575,-0,2618448,0,4096731,1,19173E-05,5,32575,-0,9506981,5,32575,0,2981002,5,32575,-0,1611353
0,4101923,1,107805E-05,5,3325,-0,8580453,5,3325,0,1047379,5,3325,-0,2618448,0,4101923,1,443503E-05,5,3325,-0,9506981,5,3325,0,2900435,5,3325,-0,1651637
0,4107116,1,393149E-05,5,33925,-0,8580453,5,33925,0,1087663,5,33925,-0,2618448,0,4107116,1,15816E-05,5,33925,-0,9506981,5,33925,0,2819867,5,33925,-0,1530785
0,4112308,1,527428E-05,5,346,-0,8580453,5,346,0,1168231,5,346,-0,2618448,0,4112308,9,567407E-06,5,346,-0,9506981,5,346,0,2779583,5,346,-0,1611353
0,41175,1,527428E-05,5,35275,-0,8620737,5,35275,0,1127947,5,35275,-0,2658732,0,41175,9,735257E-06,5,35275,-0,9466697,5,35275,0,2819867,5,35275,-0,1571069
0,4122692,1,393149E-05,5,3595,-0,8620737,5,3595,0,1168231,5,3595,-0,27393,0,4122692,9,567407E-06,5,3595,-0,9506981,5,3595,0,2779583,5,3595,-0,1611353
