Label: R BICEPS BRACHII: EMG 1 Sampling frequency: 1,925926e+003 Number of points: 58682 start: 0,000000e+000 Unit: Volts Domain Unit: s
Label: R BICEPS BRACHII: Acc 1.X Sampling frequency: 1,481481e+002 Number of points: 4514 start: 0,000000e+000 Unit: g Domain Unit: s
Label: R BICEPS BRACHII: Acc 1.Y Sampling frequency: 1,481481e+002 Number of points: 4514 start: 0,000000e+000 Unit: g Domain Unit: s
Label: R BICEPS BRACHII: Acc 1.Z Sampling frequency: 1,481481e+002 Number of points: 4514 start: 0,000000e+000 Unit: g Domain Unit: s
Label: R TRICEPS BRACHII: EMG 2 Sampling frequency: 1,925926e+003 Number of points: 58682 start: 0,000000e+000 Unit: Volts Domain Unit: s
Label: R TRICEPS BRACHII: Acc 2.X Sampling frequency: 1,481481e+002 Number of points: 4514 start: 0,000000e+000 Unit: g Domain Unit: s
Label: R TRICEPS BRACHII: Acc 2.Y Sampling frequency: 1,481481e+002 Number of points: 4514 start: 0,000000e+000 Unit: g Domain Unit: s
Label: R TRICEPS BRACHII: Acc 2.Z Sampling frequency: 1,481481e+002 Number of points: 4514 start: 0,000000e+000 Unit: g Domain Unit: s
Start Trigger Method: None
Stop Trigger Method: None
 
X[s],"R BICEPS BRACHII: EMG 1",X[s],"R BICEPS BRACHII: Acc 1.X",X[s],"R BICEPS BRACHII: Acc 1.Y",X[s],"R BICEPS BRACHII: Acc 1.Z",X[s],"R TRICEPS BRACHII: EMG 2",X[s],"R TRICEPS BRACHII: Acc 2.X",X[s],"R TRICEPS BRACHII: Acc 2.Y",X[s],"R TRICEPS BRACHII: Acc 2.Z"
0.000000,0,0.000000,0,0.000000,0,0.000000,0,0.000000,0,0.000000,0,0.000000,0,0.000000,0
0,0005192308,0,0,00675,0,0,00675,0,0,00675,0,0,0005192308,0,0,00675,0,0,00675,0,0,00675,0
0,001038462,0,0,0135,0,0,0135,0,0,0135,0,0,001038462,0,0,0135,0,0,0135,0,0,0135,0
0,001557692,0,0,02025,0,0,02025,0,0,02025,0,0,001557692,0,0,02025,0,0,02025,0,0,02025,0
0,002076923,0,0,027,0,0,027,0,0,027,0,0,002076923,0,0,027,0,0,027,0,0,027,0
0,002596154,0,0,03375,0,0,03375,0,0,03375,0,0,002596154,0,0,03375,0,0,03375,0,0,03375,0
0,003115385,0,0,0405,-0,833875,0,0405,0,06848249,0,0405,-0,4310368,0,003115385,0,0,0405,-0,8459601,0,0405,0,2497597,0,0405,-0,3867247
0,003634615,0,0,04725,-0,8459601,0,04725,0,05639734,0,04725,-0,4149233,0,003634615,0,0,04725,-0,833875,0,04725,0,2537881,0,04725,-0,3625543
0,004153846,0,0,054,-0,8540169,0,054,0,01611353,0,054,-0,4108949,0,004153846,0,0,054,-0,8741588,0,054,0,2457313,0,054,-0,3504692
0,004673077,0,0,06075,-0,8741588,0,06075,-0,03222705,0,06075,-0,4270085,0,004673077,0,0,06075,-0,9386129,0,06075,0,2376745,0,06075,-0,3504692
0,005192308,0,0,0675,-0,8822156,0,0675,-0,06042573,0,0675,-0,4511787,0,005192308,0,0,0675,-1,015152,0,0675,0,2135042,0,0675,-0,3464408
0,005711539,0,0,07425,-0,8902723,0,07425,-0,06445411,0,07425,-0,443122,0,005711539,0,0,07425,-1,043351,0,07425,0,1893339,0,07425,-0,3464408
0,006230769,0,0,081,-0,8943007,0,081,-0,05639734,0,081,-0,4108949,0,006230769,0,0,081,-1,055436,0,081,0,1651637,0,081,-0,3504692
0,00675,0,0,08775,-0,8862439,0,08775,-0,02417029,0,08775,-0,3303273,0,00675,0,0,08775,-1,027237,0,08775,0,136965,0,08775,-0,3706111
0,007269231,0,0,0945,-0,8580453,0,0945,0,01611353,0,0945,-0,2981002,0,007269231,0,0,0945,-1,003067,0,0945,0,1289082,0,0945,-0,390753
0,007788462,0,0,10125,-0,8097047,0,10125,0,02014191,0,10125,-0,3464408,0,007788462,0,0,10125,-0,9506981,0,10125,0,1490501,0,10125,-0,3947814
0,008307693,0,0,108,-0,7694209,0,108,0,008056764,0,108,-0,4390936,0,008307693,0,0,108,-0,8822156,0,108,0,1732204,0,108,-0,3988098
0,008826924,0,0,11475,-0,7734493,0,11475,0,0,11475,-0,4793774,0,008826924,0,0,11475,-0,7976196,0,11475,0,2014191,0,11475,-0,3826963
0,009346154,0,0,1215,-0,7935912,0,1215,0,02819867,0,1215,-0,4874342,0,009346154,0,0,1215,-0,7653925,0,1215,0,2135042,0,1215,-0,3625543
0,009865385,0,0,12825,-0,8298466,0,12825,0,05639734,0,12825,-0,4471503,0,009865385,0,0,12825,-0,7653925,0,12825,0,1973907,0,12825,-0,3424124
0,01038462,0,0,135,-0,8620737,0,135,0,09265278,0,135,-0,4028382,0,01038462,0,0,135,-0,8499885,0,135,0,1732204,0,135,-0,3424124
0,01090385,0,0,14175,-0,8741588,0,14175,0,1289082,0,14175,-0,3988098,0,01090385,0,0,14175,-0,9587549,0,14175,0,1530785,0,14175,-0,3504692
0,01142308,0,0,1485,-0,8701304,0,1485,0,1571069,0,1485,-0,4149233,0,01142308,0,0,1485,-1,067521,0,1485,0,136965,0,1485,-0,3665827
0,01194231,0,0,15525,-0,8701304,0,15525,0,1853056,0,15525,-0,4310368,0,01194231,0,0,15525,-1,127947,0,15525,0,1248798,0,15525,-0,3464408
0,01246154,0,0,162,-0,8620737,0,162,0,2094758,0,162,-0,4511787,0,01246154,0,0,162,-1,156146,0,162,0,1208515,0,162,-0,3343557
0,01298077,0,0,16875,-0,8822156,0,16875,0,2578164,0,16875,-0,4270085,0,01298077,0,0,16875,-1,140032,0,16875,0,1208515,0,16875,-0,2981002
0,0135,0,0,1755,-0,8902723,0,1755,0,3142138,0,1755,-0,390753,0,0135,0,0,1755,-1,107805,0,1755,0,1409934,0,1755,-0,2699016
0,01401923,0,0,18225,-0,866102,0,18225,0,3182422,0,18225,-0,4310368,0,01401923,0,0,18225,-1,047379,0,18225,0,1772488,0,18225,-0,2336462
0,01453846,0,0,189,-0,866102,0,189,0,2618448,0,189,-0,495491,0,01453846,0,0,189,-0,9748684,0,189,0,2094758,0,189,-0,1893339
0,01505769,0,0,19575,-0,8862439,0,19575,0,2094758,0,19575,-0,5317464,0,01505769,0,0,19575,-0,9224994,0,19575,0,221561,0,19575,-0,1530785
0,01557692,0,0,2025,-0,9224994,0,2025,0,2054475,0,2025,-0,5317464,0,01557692,0,0,2025,-0,9224994,0,2025,0,2094758,0,2025,-0,1450217
0,01609615,0,0,20925,-0,9305562,0,20925,0,2054475,0,20925,-0,5398031,0,01609615,0,0,20925,-0,9869535,0,20925,0,1611353,0,20925,-0,1651637
0,01661539,0,0,216,-0,9104142,0,216,0,1732204,0,216,-0,5518883,0,01661539,0,0,216,-1,09572,0,216,0,1087663,0,216,-0,2255894
0,01713462,0,0,22275,-0,8540169,0,22275,0,1772488,0,22275,-0,559945,0,01713462,0,0,22275,-1,180316,0,22275,0,06445411,0,22275,-0,3021286
0,01765385,0,0,2295,-0,7855344,0,2295,0,1973907,0,2295,-0,527718,0,01765385,0,0,2295,-1,212543,0,2295,0,03625543,0,2295,-0,3988098
0,01817308,0,0,23625,-0,7130235,0,23625,0,2135042,0,23625,-0,5075761,0,01817308,0,0,23625,-1,180316,0,23625,0,01208515,0,23625,-0,4834058
0,01869231,0,0,243,-0,6807965,0,243,0,2417029,0,243,-0,4592355,0,01869231,0,0,243,-1,103777,0,243,0,0,243,-0,527718
0,01921154,0,0,24975,-0,6888533,0,24975,0,2900435,0,24975,-0,4149233,0,01921154,0,0,24975,-0,9990387,0,24975,0,0,24975,-0,5196612
0,01973077,0,0,2565,-0,7170519,0,2565,0,3222705,0,2565,-0,4068666,0,01973077,0,0,2565,-0,8983291,0,2565,0,004028382,0,2565,-0,4632639
0,02025,0,0,26325,-0,7613642,0,26325,0,306157,0,26325,-0,4108949,0,02025,0,0,26325,-0,8258182,0,26325,0,01208515,0,26325,-0,3544976
0,02076923,0,0,27,-0,8097047,0,27,0,2699016,0,27,-0,4229801,0,02076923,0,0,27,-0,801648,0,27,0,03625543,0,27,-0,2457313
0,02128846,0,0,27675,-0,833875,0,27675,0,2537881,0,27675,-0,4511787,0,02128846,0,0,27675,-0,8217899,0,27675,0,04834058,0,27675,-0,136965
0,02180769,0,0,2835,-0,8459601,0,2835,0,2578164,0,2835,-0,4753491,0,02180769,0,0,2835,-0,8983291,0,2835,0,06042573,0,2835,-0,06042573
0,02232692,0,0,29025,-0,8540169,0,29025,0,2860151,0,29025,-0,4995193,0,02232692,0,0,29025,-0,9869535,0,29025,0,06042573,0,29025,-0,008056764
0,02284615,0,0,297,-0,8580453,0,297,0,3101854,0,297,-0,5035477,0,02284615,0,0,297,-1,063493,0,297,0,06042573,0,297,0,008056764
0,02336538,0,0,30375,-0,8781872,0,30375,0,3222705,0,30375,-0,4632639,0,02336538,0,0,30375,-1,09572,0,30375,0,06445411,0,30375,0
0,02388461,0,0,3105,-0,8943007,0,3105,0,3182422,0,3105,-0,4149233,0,02388461,0,0,3105,-1,099748,0,3105,0,06848249,0,3105,-0,03222705
0,02440385,0,0,31725,-0,8943007,0,31725,0,2900435,0,31725,-0,4028382,0,02440385,0,0,31725,-1,091691,0,31725,0,06445411,0,31725,-0,08459602
0,02492308,0,0,324,-0,8781872,0,324,0,2497597,0,324,-0,3947814,0,02492308,0,0,324,-1,067521,0,324,0,05236896,0,324,-0,1490501
0,02544231,0,0,33075,-0,8499885,0,33075,0,2255894,0,33075,-0,390753,0,02544231,0,0,33075,-1,047379,0,33075,0,04028382,0,33075,-0,2135042
0,02596154,0,0,3375,-0,8137331,0,3375,0,1893339,0,3375,-0,3867247,0,02596154,0,0,3375,-1,011124,0,3375,0,03625543,0,3375,-0,2618448
0,02648077,0,0,34425,-0,7815061,0,34425,0,1611353,0,34425,-0,3665827,0,02648077,0,0,34425,-0,9668117,0,34425,0,03625543,0,34425,-0,2860151
0,027,0,0,351,-0,7412222,0,351,0,169192,0,351,-0,3464408,0,027,0,0,351,-0,9305562,0,351,0,05236896,0,351,-0,2900435
0,02751923,0,0,35775,-0,7009384,0,35775,0,1772488,0,35775,-0,3182422,0,02751923,0,0,35775,-0,8983291,0,35775,0,09265278,0,35775,-0,2860151
0,02803846,0,0,3645,-0,6727397,0,3645,0,2014191,0,3645,-0,3303273,0,02803846,0,0,3645,-0,8741588,0,3645,0,1490501,0,3645,-0,2699016
0,02855769,0,0,37125,-0,6445411,0,37125,0,2175326,0,37125,-0,3303273,0,02855769,0,0,37125,-0,8379034,0,37125,0,221561,0,37125,-0,2417029
0,02907692,0,0,378,-0,6364843,0,378,0,221561,0,378,-0,3101854,0,02907692,0,0,378,-0,7976196,0,378,0,2779583,0,378,-0,2054475
0,02959615,0,0,38475,-0,6485695,0,38475,0,2336462,0,38475,-0,2819867,0,02959615,0,0,38475,-0,7613642,0,38475,0,306157,0,38475,-0,1772488
0,03011538,0,0,3915,-0,6767681,0,3915,0,2336462,0,3915,-0,2618448,0,03011538,0,0,3915,-0,7371938,0,3915,0,3021286,0,3915,-0,1450217
0,03063462,0,0,39825,-0,7210803,0,39825,0,2376745,0,39825,-0,2497597,0,03063462,0,0,39825,-0,7452506,0,39825,0,2900435,0,39825,-0,1127947
0,03115385,0,0,405,-0,7694209,0,405,0,2376745,0,405,-0,2417029,0,03115385,0,0,405,-0,7694209,0,405,0,2618448,0,405,-0,0886244
0,03167308,0,0,41175,-0,8177615,0,41175,0,2537881,0,41175,-0,2376745,0,03167308,0,0,41175,-0,8298466,0,41175,0,2296178,0,41175,-0,07251087
0,03219231,0,0,4185,-0,8419318,0,4185,0,2578164,0,4185,-0,2860151,0,03219231,0,0,4185,-0,9023575,0,4185,0,2135042,0,4185,-0,05639734
0,03271154,0,0,42525,-0,8459601,0,42525,0,2457313,0,42525,-0,2819867,0,03271154,0,0,42525,-0,9829252,0,42525,0,1973907,0,42525,-0,06042573
0,03323077,0,0,432,-0,8419318,0,432,0,2417029,0,432,-0,3142138,0,03323077,0,0,432,-1,031266,0,432,0,1853056,0,432,-0,07251087
0,03375,0,0,43875,-0,8217899,0,43875,0,2457313,0,43875,-0,358526,0,03375,0,0,43875,-1,047379,0,43875,0,1732204,0,43875,-0,1047379
0,03426923,0,0,4455,-0,8217899,0,4455,0,2336462,0,4455,-0,3786679,0,03426923,0,0,4455,-1,055436,0,4455,0,1571069,0,4455,-0,1289082
0,03478846,0,0,45225,-0,8298466,0,45225,0,2255894,0,45225,-0,3464408,0,03478846,0,0,45225,-1,067521,0,45225,0,136965,0,45225,-0,1530785
0,03530769,0,0,459,-0,8459601,0,459,0,2497597,0,459,-0,306157,0,03530769,0,0,459,-1,083635,0,459,0,1208515,0,459,-0,1853056
0,03582693,0,0,46575,-0,8459601,0,46575,0,2457313,0,46575,-0,2981002,0,03582693,0,0,46575,-1,09572,0,46575,0,1007095,0,46575,-0,2014191
0,03634615,0,0,4725,-0,8459601,0,4725,0,2497597,0,4725,-0,3464408,0,03634615,0,0,4725,-1,087663,0,4725,0,1087663,0,4725,-0,1973907
0,03686538,0,0,47925,-0,8298466,0,47925,0,2578164,0,47925,-0,358526,0,03686538,0,0,47925,-1,059464,0,47925,0,1329366,0,47925,-0,1732204
0,03738461,0,0,486,-0,7935912,0,486,0,27393,0,486,-0,3625543,0,03738461,0,0,486,-1,031266,0,486,0,1611353,0,486,-0,1450217
0,03790385,0,0,49275,-0,7774777,0,49275,0,2699016,0,49275,-0,3222705,0,03790385,0,0,49275,-0,9909819,0,49275,0,1812772,0,49275,-0,1047379
0,03842308,0,0,4995,-0,801648,0,4995,0,2376745,0,4995,-0,2860151,0,03842308,0,0,4995,-0,9668117,0,4995,0,1893339,0,4995,-0,0886244
0,03894231,0,0,50625,-0,8379034,0,50625,0,2054475,0,50625,-0,2699016,0,03894231,0,0,50625,-0,9466697,0,50625,0,1933623,0,50625,-0,07251087
0,03946154,0,0,513,-0,8781872,0,513,0,1732204,0,513,-0,2860151,0,03946154,0,0,513,-0,9506981,0,513,0,1853056,0,513,-0,08459602
0,03998077,0,0,51975,-0,8983291,0,51975,0,1450217,0,51975,-0,3142138,0,03998077,0,0,51975,-0,97084,0,51975,0,1812772,0,51975,-0,1007095
0,0405,-2,484169E-05,0,5265,-0,8943007,0,5265,0,1087663,0,5265,-0,3424124,0,0405,6,54612E-06,0,5265,-1,007095,0,5265,0,169192,0,5265,-0,1490501
0,04101923,-3,575189E-05,0,53325,-0,8822156,0,53325,0,1007095,0,53325,-0,3383841,0,04101923,5,203327E-06,0,53325,-1,035294,0,53325,0,1571069,0,53325,-0,2014191
0,04153846,-3,978027E-05,0,54,-0,866102,0,54,0,1127947,0,54,-0,3303273,0,04153846,2,517739E-06,0,54,-1,039322,0,54,0,1530785,0,54,-0,2578164
0,04205769,-3,440909E-05,0,54675,-0,8620737,0,54675,0,136965,0,54675,-0,3303273,0,04205769,6,713969E-07,0,54675,-1,027237,0,54675,0,1732204,0,54675,-0,2981002
0,04257692,-2,333105E-05,0,5535,-0,8781872,0,5535,0,1772488,0,5535,-0,3262989,0,04257692,2,349889E-06,0,5535,-0,9950103,0,5535,0,2054475,0,5535,-0,3424124
0,04309615,-1,02388E-05,0,56025,-0,9023575,0,56025,0,2094758,0,56025,-0,3303273,0,04309615,6,042573E-06,0,56025,-0,9668117,0,56025,0,2457313,0,56025,-0,3424124
0,04361539,8,392462E-07,0,567,-0,9386129,0,567,0,2336462,0,567,-0,3343557,0,04361539,9,231708E-06,0,567,-0,9547265,0,567,0,2819867,0,567,-0,3464408
0,04413462,5,874724E-06,0,57375,-0,97084,0,57375,0,2296178,0,57375,-0,3504692,0,04413462,9,231708E-06,0,57375,-0,97084,0,57375,0,3142138,0,57375,-0,3222705
0,04465385,5,874724E-06,0,5805,-0,97084,0,5805,0,2054475,0,5805,-0,3544976,0,04465385,1,02388E-05,0,5805,-1,003067,0,5805,0,3383841,0,5805,-0,2819867
0,04517308,4,196231E-06,0,58725,-0,9345846,0,58725,0,1812772,0,58725,-0,3706111,0,04517308,1,12459E-05,0,58725,-1,047379,0,58725,0,3544976,0,58725,-0,2457313
0,04569231,2,014191E-06,0,594,-0,8902723,0,594,0,1450217,0,594,-0,4028382,0,04569231,8,728161E-06,0,594,-1,067521,0,594,0,3504692,0,594,-0,221561
0,04621154,1,174945E-06,0,60075,-0,8459601,0,60075,0,1208515,0,60075,-0,4229801,0,04621154,9,567407E-06,0,60075,-1,063493,0,60075,0,3262989,0,60075,-0,2175326
0,04673077,-6,713969E-07,0,6075,-0,8177615,0,6075,0,1168231,0,6075,-0,4270085,0,04673077,1,292439E-05,0,6075,-1,035294,0,6075,0,2779583,0,6075,-0,2255894
0,04725,-6,54612E-06,0,61425,-0,8177615,0,61425,0,1208515,0,61425,-0,3988098,0,04725,1,258869E-05,0,61425,-1,007095,0,61425,0,2094758,0,61425,-0,2457313
0,04776923,-1,443503E-05,0,621,-0,8298466,0,621,0,1087663,0,621,-0,3786679,0,04776923,8,89601E-06,0,621,-0,9829252,0,621,0,1450217,0,621,-0,2699016
0,04828846,-2,098116E-05,0,62775,-0,8580453,0,62775,0,08056764,0,62775,-0,3625543,0,04828846,4,196231E-06,0,62775,-0,9748684,0,62775,0,09668116,0,62775,-0,2860151
0,04880769,-2,198825E-05,0,6345,-0,8822156,0,6345,0,05236896,0,6345,-0,3343557,0,04880769,5,035478E-07,0,6345,-0,9909819,0,6345,0,08459602,0,6345,-0,3101854
0,04932692,-2,299535E-05,0,64125,-0,8902723,0,64125,0,02014191,0,64125,-0,3303273,0,04932692,-5,539025E-06,0,64125,-1,015152,0,64125,0,08459602,0,64125,-0,3101854
0,04984615,-2,383459E-05,0,648,-0,8943007,0,648,-0,004028382,0,648,-0,3303273,0,04984615,-1,09102E-05,0,648,-1,039322,0,648,0,1047379,0,648,-0,3182422
0,05036538,-1,930266E-05,0,65475,-0,8781872,0,65475,-0,008056764,0,65475,-0,3343557,0,05036538,-1,02388E-05,0,65475,-1,039322,0,65475,0,1490501,0,65475,-0,3222705
0,05088462,-1,040665E-05,0,6615,-0,8580453,0,6615,0,004028382,0,6615,-0,3504692,0,05088462,-7,217517E-06,0,6615,-1,023209,0,6615,0,2094758,0,6615,-0,3303273
0,05140385,-5,035478E-07,0,66825,-0,8459601,0,66825,0,02417029,0,66825,-0,3625543,0,05140385,-3,692683E-06,0,66825,-0,9990387,0,66825,0,2860151,0,66825,-0,3383841
0,05192308,9,231708E-06,0,675,-0,8580453,0,675,0,04834058,0,675,-0,390753,0,05192308,1,678492E-07,0,675,-0,9748684,0,675,0,3544976,0,675,-0,3464408
0,05244231,1,527428E-05,0,68175,-0,8822156,0,68175,0,07251087,0,68175,-0,4108949,0,05244231,3,189135E-06,0,68175,-0,9668117,0,68175,0,390753,0,68175,-0,3504692
0,05296154,1,695277E-05,0,6885,-0,8902723,0,6885,0,08056764,0,6885,-0,4028382,0,05296154,4,196231E-06,0,6885,-0,9748684,0,6885,0,4149233,0,6885,-0,3544976
0,05348077,1,695277E-05,0,69525,-0,9144427,0,69525,0,08056764,0,69525,-0,3867247,0,05348077,3,860533E-06,0,69525,-0,9869535,0,69525,0,4189517,0,69525,-0,3504692
0,054,1,795987E-05,0,702,-0,9063858,0,702,0,06445411,0,702,-0,358526,0,054,5,203327E-06,0,702,-0,9869535,0,702,0,4108949,0,702,-0,358526
0,05451923,2,232395E-05,0,70875,-0,8943007,0,70875,0,03625543,0,70875,-0,358526,0,05451923,6,881819E-06,0,70875,-0,9909819,0,70875,0,3988098,0,70875,-0,3706111
0,05503846,2,870222E-05,0,7155,-0,8822156,0,7155,-0,004028382,0,7155,-0,3826963,0,05503846,7,553216E-06,0,7155,-0,9748684,0,7155,0,390753,0,7155,-0,390753
0,05555769,3,40734E-05,0,72225,-0,8862439,0,72225,-0,04028382,0,72225,-0,4108949,0,05555769,8,392462E-06,0,72225,-0,9668117,0,72225,0,3706111,0,72225,-0,4189517
0,05607693,3,793393E-05,0,729,-0,9023575,0,729,-0,07251087,0,729,-0,4270085,0,05607693,6,54612E-06,0,729,-0,9627832,0,729,0,3343557,0,729,-0,443122
0,05659616,3,709468E-05,0,73575,-0,9224994,0,73575,-0,07653925,0,73575,-0,4270085,0,05659616,3,860533E-06,0,73575,-0,97084,0,73575,0,2981002,0,73575,-0,4632639
0,05711538,2,937362E-05,0,7425,-0,9345846,0,7425,-0,08056764,0,7425,-0,4390936,0,05711538,6,881819E-06,0,7425,-0,9869535,0,7425,0,2658732,0,7425,-0,4793774
0,05763461,1,930266E-05,0,74925,-0,9386129,0,74925,-0,07653925,0,74925,-0,443122,0,05763461,1,141375E-05,0,74925,-0,9909819,0,74925,0,2537881,0,74925,-0,4793774
0,05815385,1,326009E-05,0,756,-0,9144427,0,756,-0,08459602,0,756,-0,443122,0,05815385,1,292439E-05,0,756,-0,9829252,0,756,0,2417029,0,756,-0,4793774
0,05867308,9,567407E-06,0,76275,-0,8983291,0,76275,-0,0886244,0,76275,-0,4552071,0,05867308,1,376364E-05,0,76275,-0,9627832,0,76275,0,2537881,0,76275,-0,4632639
0,05919231,3,189135E-06,0,7695,-0,866102,0,7695,-0,0886244,0,7695,-0,4511787,0,05919231,1,426719E-05,0,7695,-0,9426414,0,7695,0,2699016,0,7695,-0,4511787
0,05971154,-6,210422E-06,0,77625,-0,866102,0,77625,-0,07653925,0,77625,-0,4350652,0,05971154,1,393149E-05,0,77625,-0,9345846,0,77625,0,2779583,0,77625,-0,4390936
0,06023077,-1,762417E-05,0,783,-0,8741588,0,783,-0,05236896,0,783,-0,4350652,0,06023077,1,326009E-05,0,783,-0,9386129,0,783,0,2779583,0,783,-0,4390936
0,06075,-2,870222E-05,0,78975,-0,8943007,0,78975,-0,02417029,0,78975,-0,4511787,0,06075,1,426719E-05,0,78975,-0,9627832,0,78975,0,27393,0,78975,-0,443122
0,06126923,-3,877318E-05,0,7965,-0,8983291,0,7965,-0,008056764,0,7965,-0,4793774,0,06126923,1,309224E-05,0,7965,-0,9869535,0,7965,0,3021286,0,7965,-0,4390936
0,06178846,-5,018692E-05,0,80325,-0,8943007,0,80325,-0,004028382,0,80325,-0,4552071,0,06178846,1,02388E-05,0,80325,-0,9950103,0,80325,0,3222705,0,80325,-0,4270085
0,06230769,-6,059357E-05,0,81,-0,8902723,0,81,-0,01611353,0,81,-0,4390936,0,06230769,9,567407E-06,0,81,-0,9950103,0,81,0,3303273,0,81,-0,4350652
0,06282692,-6,965744E-05,0,81675,-0,9104142,0,81675,-0,02014191,0,81675,-0,4471503,0,06282692,1,19173E-05,0,81675,-0,9990387,0,81675,0,3343557,0,81675,-0,4471503
0,06334615,-7,603571E-05,0,8235,-0,9265279,0,8235,-0,02014191,0,8235,-0,4552071,0,06334615,1,527428E-05,0,8235,-1,031266,0,8235,0,3262989,0,8235,-0,4672923
0,06386539,-7,469291E-05,0,83025,-0,9506981,0,83025,-0,02417029,0,83025,-0,4592355,0,06386539,1,560998E-05,0,83025,-1,043351,0,83025,0,3383841,0,83025,-0,4713207
0,06438462,-5,925078E-05,0,837,-0,9386129,0,837,-0,02819867,0,837,-0,4632639,0,06438462,1,460288E-05,0,837,-1,035294,0,837,0,3303273,0,837,-0,4713207
0,06490385,-2,31632E-05,0,84375,-0,9063858,0,84375,-0,03222705,0,84375,-0,5035477,0,06490385,1,19173E-05,0,84375,-0,9869535,0,84375,0,3101854,0,84375,-0,4753491
0,06542308,2,735943E-05,0,8505,-0,8741588,0,8505,-0,03222705,0,8505,-0,5317464,0,06542308,1,05745E-05,0,8505,-0,9305562,0,8505,0,2940719,0,8505,-0,4793774
0,06594231,7,637141E-05,0,85725,-0,8580453,0,85725,-0,02819867,0,85725,-0,5196612,0,06594231,9,231708E-06,0,85725,-0,8862439,0,85725,0,2819867,0,85725,-0,4874342
0,06646154,0,0001188373,0,864,-0,8540169,0,864,-0,01208515,0,864,-0,5116045,0,06646154,7,888914E-06,0,864,-0,8620737,0,864,0,2779583,0,864,-0,4995193
0,06698077,0,0001460288,0,87075,-0,8741588,0,87075,-0,02014191,0,87075,-0,5317464,0,06698077,8,560311E-06,0,87075,-0,8620737,0,87075,0,2819867,0,87075,-0,5196612
0,0675,0,0001545892,0,8775,-0,9063858,0,8775,-0,03625543,0,8775,-0,5398031,0,0675,9,399557E-06,0,8775,-0,8902723,0,8775,0,2981002,0,8775,-0,527718
0,06801923,0,0001502251,0,88425,-0,9184711,0,88425,-0,05236896,0,88425,-0,5236896,0,06801923,7,721065E-06,0,88425,-0,9224994,0,88425,0,3222705,0,88425,-0,5317464
0,06853846,0,0001379721,0,891,-0,8983291,0,891,-0,06445411,0,891,-0,5156329,0,06853846,7,385367E-06,0,891,-0,9506981,0,891,0,3343557,0,891,-0,5317464
0,0690577,0,000117998,0,89775,-0,8741588,0,89775,-0,06445411,0,89775,-0,5156329,0,0690577,1,040665E-05,0,89775,-0,9587549,0,89775,0,3262989,0,89775,-0,5357748
0,06957693,9,449913E-05,0,9045,-0,8620737,0,9045,-0,04834058,0,9045,-0,5075761,0,06957693,1,326009E-05,0,9045,-0,9627832,0,9045,0,306157,0,9045,-0,527718
0,07009616,6,898604E-05,0,91125,-0,8580453,0,91125,-0,04028382,0,91125,-0,5075761,0,07009616,1,15816E-05,0,91125,-0,9587549,0,91125,0,2900435,0,91125,-0,5075761
0,07061539,3,843748E-05,0,918,-0,8540169,0,918,-0,02819867,0,918,-0,5438315,0,07061539,8,560311E-06,0,918,-0,9466697,0,918,0,27393,0,918,-0,495491
0,07113462,8,728161E-06,0,92475,-0,8540169,0,92475,-0,02819867,0,92475,-0,5478599,0,07113462,8,560311E-06,0,92475,-0,9426414,0,92475,0,2537881,0,92475,-0,4793774
0,07165385,-1,594568E-05,0,9315,-0,8580453,0,9315,-0,04028382,0,9315,-0,5317464,0,07165385,9,735257E-06,0,9315,-0,9506981,0,9315,0,2376745,0,9315,-0,4834058
0,07217308,-4,263371E-05,0,93825,-0,866102,0,93825,-0,04028382,0,93825,-0,5438315,0,07217308,1,02388E-05,0,93825,-0,9627832,0,93825,0,2376745,0,93825,-0,4995193
0,0726923,-6,730755E-05,0,945,-0,8620737,0,945,-0,0443122,0,945,-0,5639734,0,0726923,9,231708E-06,0,945,-0,9748684,0,945,0,2376745,0,945,-0,5196612
0,07321154,-7,972839E-05,0,95175,-0,8580453,0,95175,-0,04834058,0,95175,-0,5800869,0,07321154,7,888914E-06,0,95175,-0,9748684,0,95175,0,2336462,0,95175,-0,5357748
0,07373077,-8,090334E-05,0,9585,-0,8741588,0,9585,-0,0443122,0,9585,-0,5760586,0,07373077,9,567407E-06,0,9585,-0,9869535,0,9585,0,2457313,0,9585,-0,5518883
0,07425,-7,67071E-05,0,96525,-0,8862439,0,96525,-0,02014191,0,96525,-0,5518883,0,07425,1,05745E-05,0,96525,-0,9909819,0,96525,0,27393,0,96525,-0,5559167
0,07476923,-6,797894E-05,0,972,-0,8983291,0,972,0,0,972,-0,527718,0,07476923,9,231708E-06,0,972,-0,9990387,0,972,0,3021286,0,972,-0,5559167
0,07528846,-5,320821E-05,0,97875,-0,9023575,0,97875,0,02417029,0,97875,-0,5559167,0,07528846,7,385367E-06,0,97875,-1,003067,0,97875,0,3101854,0,97875,-0,5438315
0,07580769,-3,256276E-05,0,9855,-0,8943007,0,9855,0,05236896,0,9855,-0,559945,0,07580769,5,874724E-06,0,9855,-1,011124,0,9855,0,3182422,0,9855,-0,5156329
0,07632692,-1,628138E-05,0,99225,-0,866102,0,99225,0,06042573,0,99225,-0,5398031,0,07632692,6,54612E-06,0,99225,-1,003067,0,99225,0,2900435,0,99225,-0,4834058
0,07684615,-1,107805E-05,0,999,-0,8499885,0,999,0,06042573,0,999,-0,5438315,0,07684615,9,567407E-06,0,999,-0,9950103,0,999,0,2537881,0,999,-0,4874342
0,07736538,-1,376364E-05,1,00575,-0,8298466,1,00575,0,0443122,1,00575,-0,5559167,0,07736538,9,567407E-06,1,00575,-0,9909819,1,00575,0,2376745,1,00575,-0,4753491
0,07788461,-2,702373E-05,1,0125,-0,8137331,1,0125,0,02819867,1,0125,-0,5559167,0,07788461,7,553216E-06,1,0125,-0,9829252,1,0125,0,2296178,1,0125,-0,4672923
0,07840385,-4,179446E-05,1,01925,-0,7855344,1,01925,0,03222705,1,01925,-0,5478599,0,07840385,6,042573E-06,1,01925,-0,9748684,1,01925,0,221561,1,01925,-0,4672923
0,07892308,-4,649424E-05,1,026,-0,7895628,1,026,0,05236896,1,026,-0,5518883,0,07892308,4,028382E-06,1,026,-0,9748684,1,026,0,2135042,1,026,-0,4672923
0,07944231,-4,548715E-05,1,03275,-0,8137331,1,03275,0,06042573,1,03275,-0,5478599,0,07944231,1,846342E-06,1,03275,-0,9668117,1,03275,0,2255894,1,03275,-0,4713207
0,07996154,-4,229801E-05,1,0395,-0,8298466,1,0395,0,06848249,1,0395,-0,5478599,0,07996154,6,713969E-07,1,0395,-0,9547265,1,0395,0,2417029,1,0395,-0,4793774
0,08048077,-3,457694E-05,1,04625,-0,8419318,1,04625,0,06445411,1,04625,-0,5438315,0,08048077,1,846342E-06,1,04625,-0,9305562,1,04625,0,2537881,1,04625,-0,4914626
0,081,-1,292439E-05,1,053,-0,8298466,1,053,0,03625543,1,053,-0,5357748,0,081,5,203327E-06,1,053,-0,9104142,1,053,0,2699016,1,053,-0,4914626
0,08151923,3,071641E-05,1,05975,-0,8056763,1,05975,0,04028382,1,05975,-0,5035477,0,08151923,9,063859E-06,1,05975,-0,8822156,1,05975,0,27393,1,05975,-0,4995193
0,08203846,9,198139E-05,1,0665,-0,7895628,1,0665,0,01208515,1,0665,-0,4592355,0,08203846,9,735257E-06,1,0665,-0,8781872,1,0665,0,2900435,1,0665,-0,5116045
0,08255769,0,0001529107,1,07325,-0,801648,1,07325,-0,01208515,1,07325,-0,4390936,0,08255769,6,881819E-06,1,07325,-0,8781872,1,07325,0,2940719,1,07325,-0,5236896
0,08307692,0,0001977264,1,08,-0,8137331,1,08,-0,01611353,1,08,-0,4672923,0,08307692,4,36408E-06,1,08,-0,8943007,1,08,0,2940719,1,08,-0,5357748
0,08359616,0,0002220646,1,08675,-0,8137331,1,08675,-0,004028382,1,08675,-0,5035477,0,08359616,2,517739E-06,1,08675,-0,9023575,1,08675,0,2860151,1,08675,-0,5196612
0,08411539,0,0002247501,1,0935,-0,801648,1,0935,0,02819867,1,0935,-0,5317464,0,08411539,2,517739E-06,1,0935,-0,8943007,1,0935,0,2457313,1,0935,-0,4834058
0,08463462,0,000207126,1,10025,-0,7734493,1,10025,0,06042573,1,10025,-0,5438315,0,08463462,7,888914E-06,1,10025,-0,8862439,1,10025,0,1973907,1,10025,-0,4350652
0,08515385,0,0001831235,1,107,-0,7573358,1,107,0,09668116,1,107,-0,5478599,0,08515385,1,644923E-05,1,107,-0,866102,1,107,0,1530785,1,107,-0,3947814
0,08567308,0,0001587854,1,11375,-0,7653925,1,11375,0,1208515,1,11375,-0,527718,0,08567308,2,131685E-05,1,11375,-0,8620737,1,11375,0,1289082,1,11375,-0,358526
0,08619231,0,0001267262,1,1205,-0,7774777,1,1205,0,136965,1,1205,-0,5357748,0,08619231,2,265965E-05,1,1205,-0,8620737,1,1205,0,1168231,1,1205,-0,358526
0,08671154,8,426032E-05,1,12725,-0,7774777,1,12725,0,1329366,1,12725,-0,5438315,0,08671154,2,500954E-05,1,12725,-0,866102,1,12725,0,1087663,1,12725,-0,3665827
0,08723077,4,649424E-05,1,134,-0,7653925,1,134,0,1047379,1,134,-0,5196612,0,08723077,2,803082E-05,1,134,-0,8781872,1,134,0,0886244,1,134,-0,3867247
0,08775,2,366674E-05,1,14075,-0,7573358,1,14075,0,08056764,1,14075,-0,495491,0,08775,2,937362E-05,1,14075,-0,8862439,1,14075,0,07653925,1,14075,-0,3867247
0,08826923,1,15816E-05,1,1475,-0,7613642,1,1475,0,06042573,1,1475,-0,495491,0,08826923,3,004501E-05,1,1475,-0,8983291,1,1475,0,07251087,1,1475,-0,3947814
0,08878846,1,007096E-06,1,15425,-0,7694209,1,15425,0,04834058,1,15425,-0,5035477,0,08878846,2,903792E-05,1,15425,-0,9144427,1,15425,0,09265278,1,15425,-0,4028382
0,0893077,-7,888914E-06,1,161,-0,7774777,1,161,0,0443122,1,161,-0,4914626,0,0893077,2,333105E-05,1,161,-0,9104142,1,161,0,09265278,1,161,-0,4068666
0,08982693,-1,09102E-05,1,16775,-0,7734493,1,16775,0,08056764,1,16775,-0,4753491,0,08982693,1,594568E-05,1,16775,-0,8983291,1,16775,0,1168231,1,16775,-0,4028382
0,09034616,-8,224613E-06,1,1745,-0,7452506,1,1745,0,1007095,1,1745,-0,4672923,0,09034616,1,460288E-05,1,1745,-0,8781872,1,1745,0,1329366,1,1745,-0,4108949
0,09086539,-5,539025E-06,1,18125,-0,7089952,1,18125,0,1289082,1,18125,-0,495491,0,09086539,1,342794E-05,1,18125,-0,8499885,1,18125,0,1450217,1,18125,-0,3988098
0,09138462,-5,203327E-06,1,188,-0,6767681,1,188,0,1289082,1,188,-0,5035477,0,09138462,8,392462E-06,1,188,-0,8379034,1,188,0,169192,1,188,-0,3988098
0,09190385,-6,210422E-06,1,19475,-0,6727397,1,19475,0,1450217,1,19475,-0,4874342,0,09190385,8,224613E-06,1,19475,-0,8419318,1,19475,0,2054475,1,19475,-0,3988098
0,09242308,-7,888914E-06,1,2015,-0,6807965,1,2015,0,1530785,1,2015,-0,4511787,0,09242308,1,02388E-05,1,2015,-0,8540169,1,2015,0,2376745,1,2015,-0,3947814
0,09294231,-1,09102E-05,1,20825,-0,6888533,1,20825,0,136965,1,20825,-0,4229801,0,09294231,8,728161E-06,1,20825,-0,8741588,1,20825,0,2537881,1,20825,-0,3947814
0,09346154,-1,779202E-05,1,215,-0,7130235,1,215,0,1208515,1,215,-0,4310368,0,09346154,6,210422E-06,1,215,-0,8741588,1,215,0,2497597,1,215,-0,3826963
0,09398077,-2,668803E-05,1,22175,-0,7331654,1,22175,0,1007095,1,22175,-0,4350652,0,09398077,3,860533E-06,1,22175,-0,8822156,1,22175,0,2296178,1,22175,-0,3706111
0,0945,-3,390555E-05,1,2285,-0,7573358,1,2285,0,09265278,1,2285,-0,4189517,0,0945,1,846342E-06,1,2285,-0,8902723,1,2285,0,2054475,1,2285,-0,3464408
0,09501923,-4,179446E-05,1,23525,-0,7855344,1,23525,0,1289082,1,23525,-0,4229801,0,09501923,1,174945E-06,1,23525,-0,8983291,1,23525,0,1933623,1,23525,-0,3182422
0,09553846,-4,36408E-05,1,242,-0,8056763,1,242,0,169192,1,242,-0,4390936,0,09553846,-5,035478E-07,1,242,-0,9184711,1,242,0,169192,1,242,-0,3101854
0,09605769,-4,028382E-05,1,24875,-0,8137331,1,24875,0,1853056,1,24875,-0,4229801,0,09605769,-3,189135E-06,1,24875,-0,9386129,1,24875,0,1571069,1,24875,-0,3101854
0,09657692,-3,944457E-05,1,2555,-0,833875,1,2555,0,1812772,1,2555,-0,3988098,0,09657692,-4,196231E-06,1,2555,-0,9869535,1,2555,0,1611353,1,2555,-0,3021286
0,09709615,-4,179446E-05,1,26225,-0,8862439,1,26225,0,1450217,1,26225,-0,3867247,0,09709615,-1,174945E-06,1,26225,-1,039322,1,26225,0,1812772,1,26225,-0,3021286
0,09761538,-4,162661E-05,1,269,-0,9426414,1,269,0,1127947,1,269,-0,4149233,0,09761538,8,392462E-07,1,269,-1,09572,1,269,0,2175326,1,269,-0,306157
0,09813461,-3,994812E-05,1,27575,-0,9990387,1,27575,0,1007095,1,27575,-0,4552071,0,09813461,1,174945E-06,1,27575,-1,152117,1,27575,0,2417029,1,27575,-0,3101854
0,09865385,-3,810178E-05,1,2825,-1,043351,1,2825,0,09668116,1,2825,-0,4874342,0,09865385,1,007096E-06,1,2825,-1,184344,1,2825,0,2578164,1,2825,-0,3182422
0,09917308,-3,575189E-05,1,28925,-1,079606,1,28925,0,1289082,1,28925,-0,4672923,0,09917308,1,342794E-06,1,28925,-1,204486,1,28925,0,2417029,1,28925,-0,3101854
0,09969231,-3,105211E-05,1,296,-1,103777,1,296,0,1611353,1,296,-0,4270085,0,09969231,1,678492E-06,1,296,-1,2206,1,296,0,2336462,1,296,-0,306157
0,1002115,-1,980621E-05,1,30275,-1,091691,1,30275,0,2135042,1,30275,-0,4229801,0,1002115,2,517739E-06,1,30275,-1,212543,1,30275,0,2094758,1,30275,-0,306157
0,1007308,-8,392462E-06,1,3095,-1,059464,1,3095,0,2658732,1,3095,-0,4552071,0,1007308,6,042573E-06,1,3095,-1,192401,1,3095,0,1812772,1,3095,-0,3142138
0,10125,-5,539025E-06,1,31625,-1,003067,1,31625,0,2900435,1,31625,-0,495491,0,10125,5,539025E-06,1,31625,-1,152117,1,31625,0,1651637,1,31625,-0,3222705
0,1017692,-8,728161E-06,1,323,-0,9587549,1,323,0,3021286,1,323,-0,5075761,0,1017692,1,174945E-06,1,323,-1,115862,1,323,0,1450217,1,323,-0,3262989
0,1022885,-1,292439E-05,1,32975,-0,9426414,1,32975,0,2819867,1,32975,-0,4995193,0,1022885,3,356985E-07,1,32975,-1,099748,1,32975,0,1409934,1,32975,-0,3343557
0,1028077,-1,359579E-05,1,3365,-0,9466697,1,3365,0,2537881,1,3365,-0,4632639,0,1028077,2,18204E-06,1,3365,-1,083635,1,3365,0,1772488,1,3365,-0,3424124
0,1033269,-1,493858E-05,1,34325,-0,9547265,1,34325,0,2135042,1,34325,-0,4189517,0,1033269,1,846342E-06,1,34325,-1,075578,1,34325,0,2175326,1,34325,-0,3544976
0,1038462,-1,762417E-05,1,35,-0,9305562,1,35,0,1409934,1,35,-0,3706111,0,1038462,3,021286E-06,1,35,-1,063493,1,35,0,2578164,1,35,-0,358526
0,1043654,-1,477073E-05,1,35675,-0,8741588,1,35675,0,08056764,1,35675,-0,3303273,0,1043654,5,203327E-06,1,35675,-1,027237,1,35675,0,2819867,1,35675,-0,358526
0,1048846,-5,035477E-06,1,3635,-0,8177615,1,3635,0,02014191,1,3635,-0,3222705,0,1048846,8,728161E-06,1,3635,-0,9869535,1,3635,0,2779583,1,3635,-0,3504692
0,1054038,5,203327E-06,1,37025,-0,7774777,1,37025,-0,01611353,1,37025,-0,3343557,0,1054038,1,09102E-05,1,37025,-0,9426414,1,37025,0,2699016,1,37025,-0,3343557
0,1059231,1,644923E-05,1,377,-0,7573358,1,377,0,1,377,-0,3706111,0,1059231,9,903106E-06,1,377,-0,9104142,1,377,0,2537881,1,377,-0,3262989
0,1064423,2,500954E-05,1,38375,-0,7412222,1,38375,0,0443122,1,38375,-0,3988098,0,1064423,7,217517E-06,1,38375,-0,8902723,1,38375,0,2376745,1,38375,-0,3182422
0,1069615,2,131685E-05,1,3905,-0,7371938,1,3905,0,0886244,1,3905,-0,4108949,0,1069615,5,539025E-06,1,3905,-0,8741588,1,3905,0,2255894,1,3905,-0,3303273
0,1074808,1,460288E-05,1,39725,-0,749279,1,39725,0,1168231,1,39725,-0,4028382,0,1074808,7,553216E-06,1,39725,-0,8741588,1,39725,0,2054475,1,39725,-0,3424124
0,108,1,795987E-05,1,404,-0,7694209,1,404,0,1208515,1,404,-0,3947814,0,108,1,05745E-05,1,404,-0,8902723,1,404,0,1893339,1,404,-0,3303273
0,1085192,2,819867E-05,1,41075,-0,7855344,1,41075,0,1127947,1,41075,-0,390753,0,1085192,1,309224E-05,1,41075,-0,9305562,1,41075,0,1812772,1,41075,-0,3101854
0,1090385,3,961242E-05,1,4175,-0,801648,1,4175,0,1007095,1,4175,-0,3867247,0,1090385,1,359579E-05,1,4175,-0,9587549,1,4175,0,1933623,1,4175,-0,2940719
0,1095577,4,766919E-05,1,42425,-0,8177615,1,42425,0,0886244,1,42425,-0,3826963,0,1095577,1,426719E-05,1,42425,-0,9829252,1,42425,0,2094758,1,42425,-0,2779583
0,1100769,4,951553E-05,1,431,-0,8137331,1,431,0,07653925,1,431,-0,3867247,0,1100769,1,393149E-05,1,431,-0,9869535,1,431,0,2255894,1,431,-0,2779583
0,1105962,4,347295E-05,1,43775,-0,8177615,1,43775,0,07653925,1,43775,-0,390753,0,1105962,1,292439E-05,1,43775,-0,9788967,1,43775,0,2376745,1,43775,-0,2779583
0,1111154,2,920577E-05,1,4445,-0,8298466,1,4445,0,08056764,1,4445,-0,4068666,0,1111154,1,443503E-05,1,4445,-0,97084,1,4445,0,2376745,1,4445,-0,2860151
0,1116346,6,210422E-06,1,45125,-0,8540169,1,45125,0,08056764,1,45125,-0,4149233,0,1116346,1,460288E-05,1,45125,-0,9627832,1,45125,0,2255894,1,45125,-0,3021286
0,1121539,-1,863126E-05,1,458,-0,8943007,1,458,0,06042573,1,458,-0,4068666,0,1121539,1,359579E-05,1,458,-0,9668117,1,458,0,221561,1,458,-0,3222705
0,1126731,-3,608759E-05,1,46475,-0,9224994,1,46475,0,03625543,1,46475,-0,4028382,0,1126731,1,05745E-05,1,46475,-0,9829252,1,46475,0,2135042,1,46475,-0,3383841
0,1131923,-4,347295E-05,1,4715,-0,9386129,1,4715,0,01208515,1,4715,-0,4149233,0,1131923,6,54612E-06,1,4715,-0,9990387,1,4715,0,2135042,1,4715,-0,3544976
0,1137115,-4,49836E-05,1,47825,-0,9466697,1,47825,-0,004028382,1,47825,-0,443122,0,1137115,3,189135E-06,1,47825,-1,015152,1,47825,0,2094758,1,47825,-0,3625543
0,1142308,-4,649424E-05,1,485,-0,9386129,1,485,-0,004028382,1,485,-0,4874342,0,1142308,1,510643E-06,1,485,-1,023209,1,485,0,2135042,1,485,-0,3625543
0,11475,-6,193637E-05,1,49175,-0,9305562,1,49175,0,02014191,1,49175,-0,5035477,0,11475,2,517739E-06,1,49175,-1,027237,1,49175,0,2135042,1,49175,-0,3625543
0,1152692,-8,258183E-05,1,4985,-0,9224994,1,4985,0,05639734,1,4985,-0,495491,0,1152692,3,189135E-06,1,4985,-1,031266,1,4985,0,221561,1,4985,-0,3706111
0,1157885,-8,577096E-05,1,50525,-0,9184711,1,50525,0,0886244,1,50525,-0,4834058,0,1157885,3,189135E-06,1,50525,-1,039322,1,50525,0,2417029,1,50525,-0,390753
0,1163077,-6,562906E-05,1,512,-0,9144427,1,512,0,1047379,1,512,-0,4672923,0,1163077,3,860533E-06,1,512,-1,043351,1,512,0,2618448,1,512,-0,4068666
0,1168269,-4,045167E-05,1,51875,-0,9023575,1,51875,0,1047379,1,51875,-0,4592355,0,1168269,6,042573E-06,1,51875,-1,035294,1,51875,0,2900435,1,51875,-0,4229801
0,1173462,-2,534523E-05,1,5255,-0,8902723,1,5255,0,07653925,1,5255,-0,4511787,0,1173462,8,392462E-06,1,5255,-1,023209,1,5255,0,3021286,1,5255,-0,4310368
0,1178654,-2,417029E-05,1,53225,-0,8862439,1,53225,0,05236896,1,53225,-0,4471503,0,1178654,1,107805E-05,1,53225,-1,007095,1,53225,0,3142138,1,53225,-0,4310368
0,1183846,-3,642328E-05,1,539,-0,8902723,1,539,0,03625543,1,539,-0,4632639,0,1183846,9,903106E-06,1,539,-0,9829252,1,539,0,3142138,1,539,-0,4270085
0,1189038,-5,152972E-05,1,54575,-0,8943007,1,54575,0,03625543,1,54575,-0,4672923,0,1189038,5,203327E-06,1,54575,-0,9748684,1,54575,0,3101854,1,54575,-0,4189517
0,1194231,-4,817273E-05,1,5525,-0,8902723,1,5525,0,04028382,1,5525,-0,4632639,0,1194231,6,713969E-07,1,5525,-0,97084,1,5525,0,3182422,1,5525,-0,4149233
0,1199423,-1,712062E-05,1,55925,-0,8902723,1,55925,0,04028382,1,55925,-0,4713207,0,1199423,1,510643E-06,1,55925,-0,9587549,1,55925,0,3182422,1,55925,-0,4229801
0,1204615,3,071641E-05,1,566,-0,8620737,1,566,0,0443122,1,566,-0,4713207,0,1204615,5,203327E-06,1,566,-0,9305562,1,566,0,3222705,1,566,-0,4270085
0,1209808,7,87213E-05,1,57275,-0,833875,1,57275,0,05236896,1,57275,-0,4592355,0,1209808,6,54612E-06,1,57275,-0,8943007,1,57275,0,3142138,1,57275,-0,4189517
0,1215,0,0001253834,1,5795,-0,801648,1,5795,0,05639734,1,5795,-0,4511787,0,1215,5,203327E-06,1,5795,-0,8620737,1,5795,0,2900435,1,5795,-0,4189517
0,1220192,0,0001690242,1,58625,-0,7774777,1,58625,0,07251087,1,58625,-0,4511787,0,1220192,4,867628E-06,1,58625,-0,833875,1,58625,0,27393,1,58625,-0,4189517
0,1225385,0,0001940337,1,593,-0,7734493,1,593,0,07653925,1,593,-0,4592355,0,1225385,4,867628E-06,1,593,-0,8258182,1,593,0,2578164,1,593,-0,4108949
0,1230577,0,0001958801,1,59975,-0,7855344,1,59975,0,0886244,1,59975,-0,4592355,0,1230577,6,54612E-06,1,59975,-0,8258182,1,59975,0,2376745,1,59975,-0,3867247
0,1235769,0,0001876555,1,6065,-0,8097047,1,6065,0,09265278,1,6065,-0,4793774,0,1235769,8,392462E-06,1,6065,-0,8459601,1,6065,0,221561,1,6065,-0,358526
0,1240962,0,0001762417,1,61325,-0,8298466,1,61325,0,1047379,1,61325,-0,4874342,0,1240962,7,721065E-06,1,61325,-0,8781872,1,61325,0,1973907,1,61325,-0,3182422
0,1246154,0,0001559319,1,62,-0,8379034,1,62,0,1127947,1,62,-0,4874342,0,1246154,7,888914E-06,1,62,-0,9104142,1,62,0,1812772,1,62,-0,2900435
0,1251346,0,0001300832,1,62675,-0,8459601,1,62675,0,1127947,1,62675,-0,4753491,0,1251346,1,12459E-05,1,62675,-0,9426414,1,62675,0,1611353,1,62675,-0,2658732
0,1256538,0,000100206,1,6335,-0,8419318,1,6335,0,09668116,1,6335,-0,4592355,0,1256538,1,326009E-05,1,6335,-0,9506981,1,6335,0,1490501,1,6335,-0,2658732
0,1261731,5,4551E-05,1,64025,-0,8379034,1,64025,0,07251087,1,64025,-0,4350652,0,1261731,1,359579E-05,1,64025,-0,9668117,1,64025,0,1490501,1,64025,-0,2618448
0,1266923,-4,36408E-06,1,647,-0,8379034,1,647,0,0443122,1,647,-0,4149233,0,1266923,1,426719E-05,1,647,-0,9748684,1,647,0,1450217,1,647,-0,2779583
0,1272115,-5,757229E-05,1,65375,-0,8459601,1,65375,0,01611353,1,65375,-0,3988098,0,1272115,1,527428E-05,1,65375,-0,9748684,1,65375,0,1450217,1,65375,-0,2860151
0,1277308,-9,634547E-05,1,6605,-0,8499885,1,6605,-0,01208515,1,6605,-0,3867247,0,1277308,1,661708E-05,1,6605,-0,9990387,1,6605,0,1530785,1,6605,-0,306157
0,12825,-0,0001176623,1,66725,-0,8540169,1,66725,-0,04028382,1,66725,-0,3826963,0,12825,1,728847E-05,1,66725,-1,015152,1,66725,0,169192,1,66725,-0,3262989
0,1287692,-0,0001267262,1,674,-0,8620737,1,674,-0,05236896,1,674,-0,3947814,0,1287692,1,544213E-05,1,674,-1,031266,1,674,0,1772488,1,674,-0,3544976
0,1292885,-0,0001331044,1,68075,-0,8741588,1,68075,-0,05236896,1,68075,-0,4149233,0,1292885,9,735257E-06,1,68075,-1,043351,1,68075,0,1973907,1,68075,-0,358526
0,1298077,-0,0001373007,1,6875,-0,8902723,1,6875,-0,03222705,1,6875,-0,4270085,0,1298077,4,531929E-06,1,6875,-1,059464,1,6875,0,2054475,1,6875,-0,3826963
0,1303269,-0,0001344472,1,69425,-0,9063858,1,69425,0,004028382,1,69425,-0,4350652,0,1303269,3,860533E-06,1,69425,-1,075578,1,69425,0,2296178,1,69425,-0,3947814
0,1308462,-0,0001297475,1,701,-0,9144427,1,701,0,05236896,1,701,-0,4511787,0,1308462,4,196231E-06,1,701,-1,087663,1,701,0,2537881,1,701,-0,3947814
0,1313654,-0,0001205158,1,70775,-0,9144427,1,70775,0,1208515,1,70775,-0,4592355,0,1313654,3,692683E-06,1,70775,-1,087663,1,70775,0,2779583,1,70775,-0,390753
0,1318846,-0,0001008774,1,7145,-0,9023575,1,7145,0,1732204,1,7145,-0,4672923,0,1318846,5,874724E-06,1,7145,-1,083635,1,7145,0,2940719,1,7145,-0,3786679
0,1324039,-7,972839E-05,1,72125,-0,8822156,1,72125,0,221561,1,72125,-0,4753491,0,1324039,7,888914E-06,1,72125,-1,063493,1,72125,0,306157,1,72125,-0,358526
0,1329231,-5,992218E-05,1,728,-0,8781872,1,728,0,2417029,1,728,-0,4753491,0,1329231,7,721065E-06,1,728,-1,043351,1,728,0,306157,1,728,-0,3343557
0,1334423,-2,719158E-05,1,73475,-0,8781872,1,73475,0,2336462,1,73475,-0,4713207,0,1334423,5,203327E-06,1,73475,-1,023209,1,73475,0,3101854,1,73475,-0,3101854
0,1339615,2,735943E-05,1,7415,-0,8822156,1,7415,0,1973907,1,7415,-0,4552071,0,1339615,4,531929E-06,1,7415,-1,007095,1,7415,0,306157,1,7415,-0,2981002
0,1344808,9,91989E-05,1,74825,-0,8943007,1,74825,0,1611353,1,74825,-0,4350652,0,1344808,6,210422E-06,1,74825,-0,9950103,1,74825,0,3142138,1,74825,-0,2779583
0,135,0,0001693599,1,755,-0,9023575,1,755,0,1087663,1,755,-0,4028382,0,135,7,385367E-06,1,755,-0,9829252,1,755,0,2981002,1,755,-0,2819867
0,1355192,0,000222736,1,76175,-0,9063858,1,76175,0,08056764,1,76175,-0,3746395,0,1355192,6,881819E-06,1,76175,-0,9788967,1,76175,0,2860151,1,76175,-0,2779583
0,1360385,0,00025832,1,7685,-0,9063858,1,7685,0,05639734,1,7685,-0,358526,0,1360385,7,888914E-06,1,7685,-0,9788967,1,7685,0,2699016,1,7685,-0,2900435
0,1365577,0,0002697337,1,77525,-0,8862439,1,77525,0,04834058,1,77525,-0,3504692,0,1365577,1,19173E-05,1,77525,-0,9668117,1,77525,0,2658732,1,77525,-0,2860151
0,1370769,0,000261677,1,782,-0,8580453,1,782,0,05236896,1,782,-0,3424124,0,1370769,1,326009E-05,1,782,-0,9668117,1,782,0,2497597,1,782,-0,2940719
0,1375962,0,0002433814,1,78875,-0,8419318,1,78875,0,05236896,1,78875,-0,3383841,0,1375962,1,426719E-05,1,78875,-0,9587549,1,78875,0,2417029,1,78875,-0,2819867
0,1381154,0,0002136721,1,7955,-0,8217899,1,7955,0,06445411,1,7955,-0,3383841,0,1381154,1,359579E-05,1,7955,-0,9466697,1,7955,0,2296178,1,7955,-0,27393
0,1386346,0,0001713741,1,80225,-0,8056763,1,80225,0,07251087,1,80225,-0,3343557,0,1386346,1,19173E-05,1,80225,-0,9386129,1,80225,0,2255894,1,80225,-0,2578164
0,1391539,0,0001173266,1,809,-0,8056763,1,809,0,07251087,1,809,-0,3625543,0,1391539,1,359579E-05,1,809,-0,9265279,1,809,0,2135042,1,809,-0,2417029
0,1396731,5,790799E-05,1,81575,-0,8217899,1,81575,0,06042573,1,81575,-0,3746395,0,1396731,1,577783E-05,1,81575,-0,9265279,1,81575,0,2054475,1,81575,-0,2296178
0,1401923,3,860533E-06,1,8225,-0,8379034,1,8225,0,04028382,1,8225,-0,3665827,0,1401923,1,661708E-05,1,8225,-0,9305562,1,8225,0,2014191,1,8225,-0,2135042
0,1407115,-3,709468E-05,1,82925,-0,8540169,1,82925,0,02014191,1,82925,-0,358526,0,1407115,1,795987E-05,1,82925,-0,9587549,1,82925,0,2014191,1,82925,-0,2094758
0,1412308,-6,361487E-05,1,836,-0,8741588,1,836,0,01611353,1,836,-0,3625543,0,1412308,1,728847E-05,1,836,-0,9788967,1,836,0,1933623,1,836,-0,2014191
0,14175,-8,123904E-05,1,84275,-0,8741588,1,84275,0,02417029,1,84275,-0,3625543,0,14175,1,393149E-05,1,84275,-1,003067,1,84275,0,2054475,1,84275,-0,2135042
0,1422692,-9,466698E-05,1,8495,-0,8781872,1,8495,0,03625543,1,8495,-0,3706111,0,1422692,1,15816E-05,1,8495,-1,011124,1,8495,0,2054475,1,8495,-0,2296178
0,1427885,-9,701686E-05,1,85625,-0,8781872,1,85625,0,05236896,1,85625,-0,3867247,0,1427885,1,174945E-05,1,85625,-1,015152,1,85625,0,2094758,1,85625,-0,2497597
0,1433077,-8,627451E-05,1,863,-0,8741588,1,863,0,06848249,1,863,-0,3826963,0,1433077,1,292439E-05,1,863,-1,011124,1,863,0,2175326,1,863,-0,2699016
0,1438269,-6,697185E-05,1,86975,-0,8741588,1,86975,0,08459602,1,86975,-0,3826963,0,1438269,1,208515E-05,1,86975,-1,003067,1,86975,0,2336462,1,86975,-0,2860151
0,1443462,-4,884413E-05,1,8765,-0,8701304,1,8765,0,08056764,1,8765,-0,390753,0,1443462,1,292439E-05,1,8765,-0,9869535,1,8765,0,2497597,1,8765,-0,3021286
0,1448654,-4,011597E-05,1,88325,-0,8741588,1,88325,0,08056764,1,88325,-0,390753,0,1448654,1,326009E-05,1,88325,-0,9788967,1,88325,0,2578164,1,88325,-0,306157
0,1453846,-3,843748E-05,1,89,-0,8781872,1,89,0,07251087,1,89,-0,3947814,0,1453846,1,326009E-05,1,89,-0,9788967,1,89,0,2699016,1,89,-0,306157
0,1459038,-3,877318E-05,1,89675,-0,8862439,1,89675,0,07653925,1,89675,-0,3988098,0,1459038,1,409934E-05,1,89675,-0,9788967,1,89675,0,2779583,1,89675,-0,3182422
0,1464231,-3,508049E-05,1,9035,-0,8781872,1,9035,0,07653925,1,9035,-0,3988098,0,1464231,1,393149E-05,1,9035,-0,9829252,1,9035,0,2900435,1,9035,-0,3262989
0,1469423,-2,769513E-05,1,91025,-0,8701304,1,91025,0,07653925,1,91025,-0,3988098,0,1469423,1,007095E-05,1,91025,-0,9909819,1,91025,0,2940719,1,91025,-0,3182422
0,1474615,-3,575189E-05,1,917,-0,8701304,1,917,0,06042573,1,917,-0,3867247,0,1474615,7,888914E-06,1,917,-0,9909819,1,917,0,2940719,1,917,-0,3182422
0,1479808,-6,243992E-05,1,92375,-0,866102,1,92375,0,06848249,1,92375,-0,3826963,0,1479808,7,888914E-06,1,92375,-0,9909819,1,92375,0,2981002,1,92375,-0,3303273
0,1485,-8,744945E-05,1,9305,-0,8701304,1,9305,0,06848249,1,9305,-0,3947814,0,1485,8,728161E-06,1,9305,-0,9869535,1,9305,0,3021286,1,9305,-0,3182422
0,1490192,-9,835965E-05,1,93725,-0,8701304,1,93725,0,06848249,1,93725,-0,4028382,0,1490192,7,888914E-06,1,93725,-0,9869535,1,93725,0,306157,1,93725,-0,3262989
0,1495385,-9,517052E-05,1,944,-0,8701304,1,944,0,06042573,1,944,-0,4068666,0,1495385,7,217517E-06,1,944,-0,9869535,1,944,0,2940719,1,944,-0,3222705
0,1500577,-8,644236E-05,1,95075,-0,8701304,1,95075,0,05236896,1,95075,-0,4028382,0,1500577,8,560311E-06,1,95075,-0,9748684,1,95075,0,2819867,1,95075,-0,3182422
0,1505769,-8,006409E-05,1,9575,-0,8781872,1,9575,0,03222705,1,9575,-0,4028382,0,1505769,6,210422E-06,1,9575,-0,97084,1,9575,0,2618448,1,9575,-0,3142138
0,1510962,-6,932174E-05,1,96425,-0,8741588,1,96425,0,01611353,1,96425,-0,3988098,0,1510962,1,174945E-06,1,96425,-0,9668117,1,96425,0,2497597,1,96425,-0,3021286
0,1516154,-4,380865E-05,1,971,-0,8701304,1,971,0,02819867,1,971,-0,4068666,0,1516154,-1,007096E-06,1,971,-0,9748684,1,971,0,2255894,1,971,-0,2940719
0,1521346,-8,89601E-06,1,97775,-0,8580453,1,97775,0,04028382,1,97775,-0,4108949,0,1521346,-1,510643E-06,1,97775,-0,9829252,1,97775,0,221561,1,97775,-0,2940719
0,1526538,2,098116E-05,1,9845,-0,8540169,1,9845,0,04834058,1,9845,-0,4068666,0,1526538,-3,356985E-06,1,9845,-0,9788967,1,9845,0,2135042,1,9845,-0,2940719
0,1531731,3,776608E-05,1,99125,-0,8419318,1,99125,0,05639734,1,99125,-0,3988098,0,1531731,-6,042573E-06,1,99125,-0,97084,1,99125,0,2094758,1,99125,-0,2900435
0,1536923,4,548715E-05,1,998,-0,8459601,1,998,0,06042573,1,998,-0,3826963,0,1536923,-4,196231E-06,1,998,-0,97084,1,998,0,2054475,1,998,-0,2900435
0,1542115,3,508049E-05,2,00475,-0,8499885,2,00475,0,06445411,2,00475,-0,3706111,0,1542115,-5,035478E-07,2,00475,-0,9748684,2,00475,0,1973907,2,00475,-0,2860151
0,1547308,7,049668E-06,2,0115,-0,8620737,2,0115,0,05236896,2,0115,-0,3706111,0,1547308,1,678492E-07,2,0115,-0,9748684,2,0115,0,2135042,2,0115,-0,2779583
0,15525,-2,568093E-05,2,01825,-0,8701304,2,01825,0,0443122,2,01825,-0,3826963,0,15525,1,678492E-06,2,01825,-0,9668117,2,01825,0,2175326,2,01825,-0,27393
0,1557692,-4,716564E-05,2,025,-0,866102,2,025,0,03625543,2,025,-0,3988098,0,1557692,3,860533E-06,2,025,-0,9748684,2,025,0,2296178,2,025,-0,2699016
0,1562885,-5,421531E-05,2,03175,-0,8701304,2,03175,0,0443122,2,03175,-0,3988098,0,1562885,3,021286E-06,2,03175,-0,9668117,2,03175,0,2336462,2,03175,-0,27393
0,1568077,-4,46479E-05,2,0385,-0,8540169,2,0385,0,05639734,2,0385,-0,390753,0,1568077,1,678492E-07,2,0385,-0,9668117,2,0385,0,2296178,2,0385,-0,2819867
0,1573269,-1,661708E-05,2,04525,-0,8499885,2,04525,0,05639734,2,04525,-0,390753,0,1573269,1,174945E-06,2,04525,-0,97084,2,04525,0,2336462,2,04525,-0,2981002
0,1578462,1,628138E-05,2,052,-0,8499885,2,052,0,06848249,2,052,-0,3867247,0,1578462,4,196231E-06,2,052,-0,9668117,2,052,0,2336462,2,052,-0,3021286
0,1583654,3,860533E-05,2,05875,-0,8419318,2,05875,0,06848249,2,05875,-0,3665827,0,1583654,4,867628E-06,2,05875,-0,9668117,2,05875,0,2376745,2,05875,-0,2981002
0,1588846,5,069047E-05,2,0655,-0,8459601,2,0655,0,06042573,2,0655,-0,358526,0,1588846,5,874724E-06,2,0655,-0,9668117,2,0655,0,2417029,2,0655,-0,2900435
0,1594038,5,102617E-05,2,07225,-0,8701304,2,07225,0,03222705,2,07225,-0,3786679,0,1594038,1,02388E-05,2,07225,-0,9668117,2,07225,0,2376745,2,07225,-0,2819867
0,1599231,4,582285E-05,2,079,-0,8943007,2,079,0,02014191,2,079,-0,4028382,0,1599231,1,275654E-05,2,079,-0,9627832,2,079,0,2376745,2,079,-0,2699016
0,1604423,4,078737E-05,2,08575,-0,9023575,2,08575,0,02014191,2,08575,-0,4068666,0,1604423,1,09102E-05,2,08575,-0,9748684,2,08575,0,2296178,2,08575,-0,2699016
0,1609615,3,642328E-05,2,0925,-0,8862439,2,0925,0,04028382,2,0925,-0,4028382,0,1609615,1,15816E-05,2,0925,-0,9869535,2,0925,0,2336462,2,0925,-0,2779583
0,1614808,3,474479E-05,2,09925,-0,8822156,2,09925,0,05639734,2,09925,-0,4028382,0,1614808,1,258869E-05,2,09925,-1,003067,2,09925,0,2336462,2,09925,-0,2900435
0,162,3,944457E-05,2,106,-0,8701304,2,106,0,06848249,2,106,-0,4068666,0,162,1,242084E-05,2,106,-1,023209,2,106,0,2336462,2,106,-0,3142138
0,1625192,5,152972E-05,2,11275,-0,8741588,2,11275,0,08056764,2,11275,-0,4149233,0,1625192,1,292439E-05,2,11275,-1,027237,2,11275,0,2497597,2,11275,-0,3303273
0,1630385,7,368581E-05,2,1195,-0,8620737,2,1195,0,1007095,2,1195,-0,4310368,0,1630385,1,393149E-05,2,1195,-1,019181,2,1195,0,27393,2,1195,-0,3504692
0,1635577,9,95346E-05,2,12625,-0,8620737,2,12625,0,1168231,2,12625,-0,4592355,0,1635577,1,477073E-05,2,12625,-1,007095,2,12625,0,2779583,2,12625,-0,3504692
0,1640769,0,0001297475,2,133,-0,866102,2,133,0,1248798,2,133,-0,4632639,0,1640769,1,779202E-05,2,133,-1,003067,2,133,0,2860151,2,133,-0,358526
0,1645962,0,0001589532,2,13975,-0,8701304,2,13975,0,1248798,2,13975,-0,4390936,0,1645962,1,963836E-05,2,13975,-0,9950103,2,13975,0,3021286,2,13975,-0,3464408
0,1651154,0,0001717098,2,1465,-0,8620737,2,1465,0,1168231,2,1465,-0,4189517,0,1651154,1,795987E-05,2,1465,-0,9950103,2,1465,0,3101854,2,1465,-0,3343557
0,1656346,0,0001502251,2,15325,-0,8540169,2,15325,0,1087663,2,15325,-0,4229801,0,1656346,1,812772E-05,2,15325,-0,9788967,2,15325,0,3303273,2,15325,-0,3182422
0,1661538,9,785611E-05,2,16,-0,8459601,2,16,0,0886244,2,16,-0,4189517,0,1661538,2,450599E-05,2,16,-0,9627832,2,16,0,3343557,2,16,-0,306157
0,1666731,4,901198E-05,2,16675,-0,8499885,2,16675,0,07653925,2,16675,-0,4189517,0,1666731,3,138781E-05,2,16675,-0,9466697,2,16675,0,3222705,2,16675,-0,2981002
0,1671923,1,594568E-05,2,1735,-0,8419318,2,1735,0,07251087,2,1735,-0,4149233,0,1671923,3,239491E-05,2,1735,-0,9466697,2,1735,0,2860151,2,1735,-0,2900435
0,1677115,-5,539025E-06,2,18025,-0,8499885,2,18025,0,07653925,2,18025,-0,4108949,0,1677115,2,735943E-05,2,18025,-0,9466697,2,18025,0,2497597,2,18025,-0,2981002
0,1682308,-1,678492E-05,2,187,-0,8499885,2,187,0,07251087,2,187,-0,4189517,0,1682308,2,131685E-05,2,187,-0,9627832,2,187,0,221561,2,187,-0,3021286
0,16875,-2,803082E-05,2,19375,-0,866102,2,19375,0,07251087,2,19375,-0,4028382,0,16875,1,712062E-05,2,19375,-0,9788967,2,19375,0,1973907,2,19375,-0,3021286
0,1692692,-4,246586E-05,2,2005,-0,8620737,2,2005,0,06848249,2,2005,-0,3988098,0,1692692,1,208515E-05,2,2005,-0,9990387,2,2005,0,1933623,2,2005,-0,3021286
0,1697885,-4,850843E-05,2,20725,-0,8580453,2,20725,0,06042573,2,20725,-0,3988098,0,1697885,9,231708E-06,2,20725,-0,9950103,2,20725,0,2014191,2,20725,-0,2900435
0,1703077,-3,978027E-05,2,214,-0,8499885,2,214,0,05639734,2,214,-0,4068666,0,1703077,1,05745E-05,2,214,-0,9829252,2,214,0,2094758,2,214,-0,2940719
0,1708269,-2,064546E-05,2,22075,-0,8540169,2,22075,0,04834058,2,22075,-0,4068666,0,1708269,1,05745E-05,2,22075,-0,9627832,2,22075,0,221561,2,22075,-0,2900435
0,1713462,-3,524834E-06,2,2275,-0,8499885,2,2275,0,04834058,2,2275,-0,4068666,0,1713462,6,54612E-06,2,2275,-0,9547265,2,2275,0,2255894,2,2275,-0,2900435
0,1718654,3,692683E-06,2,23425,-0,8459601,2,23425,0,04834058,2,23425,-0,4068666,0,1718654,3,860533E-06,2,23425,-0,9426414,2,23425,0,2336462,2,23425,-0,2940719
0,1723846,1,12459E-05,2,241,-0,8379034,2,241,0,05236896,2,241,-0,4068666,0,1723846,5,203327E-06,2,241,-0,9305562,2,241,0,2376745,2,241,-0,3021286
0,1729039,2,987716E-05,2,24775,-0,8379034,2,24775,0,04834058,2,24775,-0,3947814,0,1729039,6,881819E-06,2,24775,-0,9345846,2,24775,0,2417029,2,24775,-0,3142138
0,1734231,5,320821E-05,2,2545,-0,8298466,2,2545,0,04834058,2,2545,-0,4028382,0,1734231,6,378271E-06,2,2545,-0,9426414,2,2545,0,2457313,2,2545,-0,3142138
0,1739423,7,167162E-05,2,26125,-0,8258182,2,26125,0,05236896,2,26125,-0,4149233,0,1739423,6,54612E-06,2,26125,-0,9466697,2,26125,0,2457313,2,26125,-0,3222705
0,1744615,8,140688E-05,2,268,-0,8217899,2,268,0,06042573,2,268,-0,4229801,0,1744615,1,040665E-05,2,268,-0,9547265,2,268,0,2497597,2,268,-0,3222705
0,1749808,8,677805E-05,2,27475,-0,833875,2,27475,0,06445411,2,27475,-0,4350652,0,1749808,1,409934E-05,2,27475,-0,9587549,2,27475,0,2376745,2,27475,-0,3262989
0,1755,8,577096E-05,2,2815,-0,8580453,2,2815,0,06042573,2,2815,-0,4390936,0,1755,1,628138E-05,2,2815,-0,9668117,2,2815,0,2255894,2,2815,-0,3343557
0,1760192,7,100023E-05,2,28825,-0,8701304,2,28825,0,06445411,2,28825,-0,4511787,0,1760192,1,292439E-05,2,28825,-0,9829252,2,28825,0,2135042,2,28825,-0,3303273
0,1765385,5,052262E-05,2,295,-0,8781872,2,295,0,06042573,2,295,-0,4552071,0,1765385,7,721065E-06,2,295,-0,9909819,2,295,0,2094758,2,295,-0,3424124
0,1770577,3,038071E-05,2,30175,-0,8741588,2,30175,0,07251087,2,30175,-0,4471503,0,1770577,6,881819E-06,2,30175,-0,9990387,2,30175,0,2094758,2,30175,-0,3424124
0,1775769,2,853437E-06,2,3085,-0,866102,2,3085,0,07653925,2,3085,-0,443122,0,1775769,5,874724E-06,2,3085,-0,9788967,2,3085,0,2094758,2,3085,-0,3383841
0,1780962,-4,33051E-05,2,31525,-0,8620737,2,31525,0,07653925,2,31525,-0,443122,0,1780962,3,021286E-06,2,31525,-0,9668117,2,31525,0,2135042,2,31525,-0,3424124
0,1786154,-8,509956E-05,2,322,-0,866102,2,322,0,06848249,2,322,-0,443122,0,1786154,-1,174945E-06,2,322,-0,9587549,2,322,0,2135042,2,322,-0,3383841
0,1791346,-9,970245E-05,2,32875,-0,8781872,2,32875,0,07251087,2,32875,-0,4350652,0,1791346,-5,874724E-06,2,32875,-0,9587549,2,32875,0,221561,2,32875,-0,3222705
0,1796539,-9,164569E-05,2,3355,-0,8822156,2,3355,0,07653925,2,3355,-0,4229801,0,1796539,-8,89601E-06,2,3355,-0,9668117,2,3355,0,2336462,2,3355,-0,3262989
0,1801731,-7,116808E-05,2,34225,-0,8822156,2,34225,0,07653925,2,34225,-0,4229801,0,1801731,-8,056764E-06,2,34225,-0,9748684,2,34225,0,2417029,2,34225,-0,3222705
0,1806923,-4,817273E-05,2,349,-0,8862439,2,349,0,07251087,2,349,-0,4390936,0,1806923,-2,853437E-06,2,349,-0,9829252,2,349,0,2417029,2,349,-0,3262989
0,1812115,-3,27306E-05,2,35575,-0,8943007,2,35575,0,06042573,2,35575,-0,4632639,0,1812115,-5,035478E-07,2,35575,-0,9990387,2,35575,0,2376745,2,35575,-0,3182422
0,1817308,-3,172351E-05,2,3625,-0,8902723,2,3625,0,05639734,2,3625,-0,4713207,0,1817308,-8,392462E-07,2,3625,-1,007095,2,3625,0,2296178,2,3625,-0,3142138
0,18225,-4,280156E-05,2,36925,-0,8862439,2,36925,0,06042573,2,36925,-0,4672923,0,18225,-1,846342E-06,2,36925,-1,011124,2,36925,0,2094758,2,36925,-0,3142138
0,1827692,-5,287251E-05,2,376,-0,8741588,2,376,0,05639734,2,376,-0,4592355,0,1827692,-5,539025E-06,2,376,-1,011124,2,376,0,2054475,2,376,-0,3142138
0,1832885,-5,069047E-05,2,38275,-0,8580453,2,38275,0,05236896,2,38275,-0,4471503,0,1832885,-9,567407E-06,2,38275,-0,9950103,2,38275,0,2014191,2,38275,-0,3222705
0,1838077,-3,944457E-05,2,3895,-0,8459601,2,3895,0,04834058,2,3895,-0,4390936,0,1838077,-8,056764E-06,2,3895,-0,9788967,2,3895,0,2054475,2,3895,-0,3182422
0,1843269,-3,038071E-05,2,39625,-0,8379034,2,39625,0,05639734,2,39625,-0,4310368,0,1843269,-4,531929E-06,2,39625,-0,9587549,2,39625,0,2014191,2,39625,-0,3222705
0,1848462,-2,366674E-05,2,403,-0,8379034,2,403,0,06445411,2,403,-0,4189517,0,1848462,-2,18204E-06,2,403,-0,9426414,2,403,0,2014191,2,403,-0,3303273
0,1853654,-1,661708E-05,2,40975,-0,8419318,2,40975,0,08056764,2,40975,-0,4229801,0,1853654,8,392462E-07,2,40975,-0,9386129,2,40975,0,1973907,2,40975,-0,3383841
0,1858846,-1,393149E-05,2,4165,-0,8499885,2,4165,0,08459602,2,4165,-0,4350652,0,1858846,6,71397E-06,2,4165,-0,9345846,2,4165,0,2175326,2,4165,-0,3464408
0,1864039,-1,393149E-05,2,42325,-0,8540169,2,42325,0,08056764,2,42325,-0,443122,0,1864039,1,02388E-05,2,42325,-0,9587549,2,42325,0,2336462,2,42325,-0,3464408
0,1869231,-1,577783E-05,2,43,-0,8499885,2,43,0,06042573,2,43,-0,4390936,0,1869231,8,224613E-06,2,43,-0,9627832,2,43,0,2497597,2,43,-0,3544976
0,1874423,-1,846342E-05,2,43675,-0,8419318,2,43675,0,05639734,2,43675,-0,4390936,0,1874423,2,517739E-06,2,43675,-0,9668117,2,43675,0,2658732,2,43675,-0,3625543
0,1879615,-1,829557E-05,2,4435,-0,8379034,2,4435,0,05236896,2,4435,-0,4310368,0,1879615,1,007096E-06,2,4435,-0,9788967,2,4435,0,2779583,2,4435,-0,3665827
0,1884808,-1,712062E-05,2,45025,-0,8298466,2,45025,0,06042573,2,45025,-0,4310368,0,1884808,4,36408E-06,2,45025,-0,97084,2,45025,0,2860151,2,45025,-0,3665827
0,189,-9,063859E-06,2,457,-0,8298466,2,457,0,06445411,2,457,-0,4390936,0,189,5,874724E-06,2,457,-0,9748684,2,457,0,2819867,2,457,-0,3665827
0,1895192,1,02388E-05,2,46375,-0,8217899,2,46375,0,06848249,2,46375,-0,4390936,0,1895192,8,89601E-06,2,46375,-0,9668117,2,46375,0,2819867,2,46375,-0,3464408
0,1900385,3,675898E-05,2,4705,-0,8298466,2,4705,0,05639734,2,4705,-0,4390936,0,1900385,1,326009E-05,2,4705,-0,9587549,2,4705,0,2699016,2,4705,-0,3424124
0,1905577,6,697185E-05,2,47725,-0,8379034,2,47725,0,05236896,2,47725,-0,4350652,0,1905577,1,678492E-05,2,47725,-0,9426414,2,47725,0,2699016,2,47725,-0,3222705
0,1910769,0,0001028916,2,484,-0,8459601,2,484,0,04834058,2,484,-0,4310368,0,1910769,1,829557E-05,2,484,-0,9265279,2,484,0,2417029,2,484,-0,3101854
0,1915962,0,0001495537,2,49075,-0,8580453,2,49075,0,04028382,2,49075,-0,4310368,0,1915962,1,863126E-05,2,49075,-0,9265279,2,49075,0,2376745,2,49075,-0,3021286
0,1921154,0,0001968872,2,4975,-0,866102,2,4975,0,03222705,2,4975,-0,4270085,0,1921154,1,930266E-05,2,4975,-0,9386129,2,4975,0,2255894,2,4975,-0,306157
0,1926346,0,0002321355,2,50425,-0,8741588,2,50425,0,03222705,2,50425,-0,4310368,0,1926346,1,829557E-05,2,50425,-0,9466697,2,50425,0,221561,2,50425,-0,3142138
0,1931538,0,0002563058,2,511,-0,8781872,2,511,0,0443122,2,511,-0,4310368,0,1931538,1,829557E-05,2,511,-0,9748684,2,511,0,2135042,2,511,-0,3142138
0,1936731,0,0002610056,2,51775,-0,8822156,2,51775,0,05236896,2,51775,-0,4310368,0,1936731,1,863126E-05,2,51775,-0,9990387,2,51775,0,2135042,2,51775,-0,3222705
0,1941923,0,0002462348,2,5245,-0,8822156,2,5245,0,06445411,2,5245,-0,4390936,0,1941923,1,795987E-05,2,5245,-1,015152,2,5245,0,2094758,2,5245,-0,3343557
0,1947115,0,0002200504,2,53125,-0,8741588,2,53125,0,06848249,2,53125,-0,4350652,0,1947115,1,863126E-05,2,53125,-1,035294,2,53125,0,2255894,2,53125,-0,3303273
0,1952308,0,0001811093,2,538,-0,8741588,2,538,0,05639734,2,538,-0,4270085,0,1952308,2,030976E-05,2,538,-1,047379,2,538,0,2336462,2,538,-0,3504692
0,19575,0,0001272297,2,54475,-0,8701304,2,54475,0,0443122,2,54475,-0,4229801,0,19575,2,299535E-05,2,54475,-1,031266,2,54475,0,2537881,2,54475,-0,3544976
0,1962692,6,562906E-05,2,5515,-0,8741588,2,5515,0,0443122,2,5515,-0,4270085,0,1962692,2,433814E-05,2,5515,-1,015152,2,5515,0,2618448,2,5515,-0,3544976
0,1967885,1,007095E-05,2,55825,-0,866102,2,55825,0,04834058,2,55825,-0,4149233,0,1967885,2,400244E-05,2,55825,-0,9990387,2,55825,0,2699016,2,55825,-0,3343557
0,1973077,-2,652018E-05,2,565,-0,8620737,2,565,0,05639734,2,565,-0,4108949,0,1973077,2,400244E-05,2,565,-0,9788967,2,565,0,27393,2,565,-0,3303273
0,1978269,-4,515145E-05,2,57175,-0,8499885,2,57175,0,04834058,2,57175,-0,4028382,0,1978269,2,433814E-05,2,57175,-0,9627832,2,57175,0,27393,2,57175,-0,3222705
0,1983462,-5,572595E-05,2,5785,-0,8499885,2,5785,0,04028382,2,5785,-0,3988098,0,1983462,2,131685E-05,2,5785,-0,9426414,2,5785,0,2779583,2,5785,-0,3142138
0,1988654,-6,361487E-05,2,58525,-0,8499885,2,58525,0,04028382,2,58525,-0,3988098,0,1988654,1,863126E-05,2,58525,-0,9305562,2,58525,0,2618448,2,58525,-0,3182422
0,1993846,-6,932174E-05,2,592,-0,8459601,2,592,0,04834058,2,592,-0,4108949,0,1993846,1,846342E-05,2,592,-0,9305562,2,592,0,2658732,2,592,-0,3182422
0,1999038,-7,083238E-05,2,59875,-0,8459601,2,59875,0,05639734,2,59875,-0,4149233,0,1999038,1,661708E-05,2,59875,-0,9265279,2,59875,0,2618448,2,59875,-0,3142138
0,2004231,-6,74754E-05,2,6055,-0,8459601,2,6055,0,05639734,2,6055,-0,4108949,0,2004231,1,393149E-05,2,6055,-0,9426414,2,6055,0,2618448,2,6055,-0,3101854
0,2009423,-6,61326E-05,2,61225,-0,8499885,2,61225,0,04834058,2,61225,-0,4189517,0,2009423,1,05745E-05,2,61225,-0,9547265,2,61225,0,2457313,2,61225,-0,3142138
0,2014615,-7,100023E-05,2,619,-0,8580453,2,619,0,0443122,2,619,-0,4108949,0,2014615,9,231708E-06,2,619,-0,9748684,2,619,0,2376745,2,619,-0,3222705
0,2019808,-7,87213E-05,2,62575,-0,866102,2,62575,0,05236896,2,62575,-0,4028382,0,2019808,9,231708E-06,2,62575,-0,9829252,2,62575,0,221561,2,62575,-0,3303273
0,2025,-8,375677E-05,2,6325,-0,8781872,2,6325,0,06042573,2,6325,-0,4149233,0,2025,8,560311E-06,2,6325,-1,003067,2,6325,0,221561,2,6325,-0,3303273
0,2030192,-8,375677E-05,2,63925,-0,8862439,2,63925,0,07251087,2,63925,-0,4310368,0,2030192,6,54612E-06,2,63925,-1,023209,2,63925,0,2135042,2,63925,-0,3303273
0,2035385,-7,737851E-05,2,646,-0,8781872,2,646,0,07251087,2,646,-0,443122,0,2035385,5,203327E-06,2,646,-1,031266,2,646,0,221561,2,646,-0,3343557
0,2040577,-6,730755E-05,2,65275,-0,8781872,2,65275,0,06042573,2,65275,-0,4511787,0,2040577,4,196231E-06,2,65275,-1,027237,2,65275,0,2094758,2,65275,-0,3343557
0,2045769,-5,992218E-05,2,6595,-0,8822156,2,6595,0,04834058,2,6595,-0,4471503,0,2045769,3,021286E-06,2,6595,-1,019181,2,6595,0,2054475,2,6595,-0,3504692
0,2050962,-5,48867E-05,2,66625,-0,8862439,2,66625,0,04028382,2,66625,-0,4390936,0,2050962,-1,174945E-06,2,66625,-1,011124,2,66625,0,2014191,2,66625,-0,3464408
0,2056154,-5,085832E-05,2,673,-0,8862439,2,673,0,04028382,2,673,-0,4471503,0,2056154,-4,531929E-06,2,673,-1,011124,2,673,0,2014191,2,673,-0,3504692
0,2061346,-4,934768E-05,2,67975,-0,8983291,2,67975,0,03625543,2,67975,-0,443122,0,2061346,-3,524834E-06,2,67975,-1,019181,2,67975,0,2135042,2,67975,-0,3504692
0,2066538,-5,052262E-05,2,6865,-0,8983291,2,6865,0,0443122,2,6865,-0,4471503,0,2066538,2,517739E-06,2,6865,-1,035294,2,6865,0,221561,2,6865,-0,3504692
0,2071731,-5,253682E-05,2,69325,-0,8862439,2,69325,0,06042573,2,69325,-0,4471503,0,2071731,6,881819E-06,2,69325,-1,035294,2,69325,0,2336462,2,69325,-0,3504692
0,2076923,-5,287251E-05,2,7,-0,8741588,2,7,0,07653925,2,7,-0,4552071,0,2076923,8,224613E-06,2,7,-1,027237,2,7,0,2417029,2,7,-0,3544976
0,2082115,-5,052262E-05,2,70675,-0,866102,2,70675,0,0886244,2,70675,-0,4471503,0,2082115,8,560311E-06,2,70675,-1,027237,2,70675,0,2417029,2,70675,-0,3464408
0,2087308,-4,649424E-05,2,7135,-0,8620737,2,7135,0,0886244,2,7135,-0,4471503,0,2087308,1,02388E-05,2,7135,-1,015152,2,7135,0,2255894,2,7135,-0,3464408
0,20925,-4,162661E-05,2,72025,-0,8701304,2,72025,0,07653925,2,72025,-0,4632639,0,20925,1,12459E-05,2,72025,-0,9990387,2,72025,0,2094758,2,72025,-0,3303273
0,2097692,-3,541619E-05,2,727,-0,8620737,2,727,0,06042573,2,727,-0,4713207,0,2097692,7,888914E-06,2,727,-0,9829252,2,727,0,1933623,2,727,-0,3262989
0,2102885,-2,903792E-05,2,73375,-0,8620737,2,73375,0,0443122,2,73375,-0,4753491,0,2102885,5,874724E-06,2,73375,-0,9627832,2,73375,0,1812772,2,73375,-0,3182422
0,2108077,-2,21561E-05,2,7405,-0,866102,2,7405,0,03625543,2,7405,-0,4713207,0,2108077,6,881819E-06,2,7405,-0,9587549,2,7405,0,1611353,2,7405,-0,3182422
0,2113269,-1,493858E-05,2,74725,-0,8620737,2,74725,0,03222705,2,74725,-0,4753491,0,2113269,5,874724E-06,2,74725,-0,9426414,2,74725,0,1611353,2,74725,-0,3262989
0,2118462,-1,208515E-05,2,754,-0,8620737,2,754,0,03222705,2,754,-0,4753491,0,2118462,3,860533E-06,2,754,-0,9426414,2,754,0,1571069,2,754,-0,3424124
0,2123654,-1,12459E-05,2,76075,-0,8580453,2,76075,0,03625543,2,76075,-0,4753491,0,2123654,3,021286E-06,2,76075,-0,9426414,2,76075,0,1651637,2,76075,-0,358526
0,2128846,-9,231708E-06,2,7675,-0,8459601,2,7675,0,02819867,2,7675,-0,4753491,0,2128846,2,685588E-06,2,7675,-0,9466697,2,7675,0,1812772,2,7675,-0,3786679
0,2134039,-8,560311E-06,2,77425,-0,8298466,2,77425,0,02417029,2,77425,-0,4713207,0,2134039,3,021286E-06,2,77425,-0,9506981,2,77425,0,2014191,2,77425,-0,3947814
0,2139231,-8,89601E-06,2,781,-0,8217899,2,781,0,02819867,2,781,-0,4713207,0,2139231,3,860533E-06,2,781,-0,9466697,2,781,0,2094758,2,781,-0,4068666
0,2144423,-8,224613E-06,2,78775,-0,8177615,2,78775,0,03625543,2,78775,-0,4753491,0,2144423,4,196231E-06,2,78775,-0,9466697,2,78775,0,2255894,2,78775,-0,4068666
0,2149615,-6,378271E-06,2,7945,-0,8217899,2,7945,0,0443122,2,7945,-0,4793774,0,2149615,1,678492E-06,2,7945,-0,9345846,2,7945,0,2296178,2,7945,-0,4189517
0,2154808,-2,014191E-06,2,80125,-0,8217899,2,80125,0,04028382,2,80125,-0,4874342,0,2154808,1,007096E-06,2,80125,-0,9265279,2,80125,0,2457313,2,80125,-0,4149233
0,216,6,210422E-06,2,808,-0,8258182,2,808,0,0443122,2,808,-0,495491,0,216,2,853437E-06,2,808,-0,9305562,2,808,0,2457313,2,808,-0,4149233
0,2165192,1,644923E-05,2,81475,-0,833875,2,81475,0,04028382,2,81475,-0,5035477,0,2165192,4,531929E-06,2,81475,-0,9345846,2,81475,0,2417029,2,81475,-0,4068666
0,2170385,2,601663E-05,2,8215,-0,8419318,2,8215,0,04834058,2,8215,-0,5035477,0,2170385,6,042573E-06,2,8215,-0,9386129,2,8215,0,2336462,2,8215,-0,4028382
0,2175577,3,004501E-05,2,82825,-0,833875,2,82825,0,05639734,2,82825,-0,495491,0,2175577,7,553216E-06,2,82825,-0,9466697,2,82825,0,221561,2,82825,-0,4028382
0,2180769,2,568093E-05,2,835,-0,8379034,2,835,0,05639734,2,835,-0,4914626,0,2180769,6,881819E-06,2,835,-0,9587549,2,835,0,2135042,2,835,-0,4068666
0,2185962,1,443503E-05,2,84175,-0,8499885,2,84175,0,05639734,2,84175,-0,495491,0,2185962,3,356985E-07,2,84175,-0,9587549,2,84175,0,2094758,2,84175,-0,3988098
0,2191154,3,860533E-06,2,8485,-0,8620737,2,8485,0,04834058,2,8485,-0,5035477,0,2191154,-4,531929E-06,2,8485,-0,9627832,2,8485,0,2094758,2,8485,-0,4068666
0,2196346,2,517739E-06,2,85525,-0,8580453,2,85525,0,04028382,2,85525,-0,4995193,0,2196346,-5,203327E-06,2,85525,-0,9869535,2,85525,0,2175326,2,85525,-0,4068666
0,2201539,5,203327E-06,2,862,-0,8580453,2,862,0,0443122,2,862,-0,4914626,0,2201539,-3,524834E-06,2,862,-0,9829252,2,862,0,221561,2,862,-0,4028382
0,2206731,7,385367E-06,2,86875,-0,8580453,2,86875,0,04834058,2,86875,-0,4914626,0,2206731,-6,713969E-07,2,86875,-0,9909819,2,86875,0,2175326,2,86875,-0,3988098
0,2211923,9,231708E-06,2,8755,-0,8620737,2,8755,0,05639734,2,8755,-0,4914626,0,2211923,3,189135E-06,2,8755,-0,9950103,2,8755,0,2094758,2,8755,-0,3867247
0,2217115,1,393149E-05,2,88225,-0,8701304,2,88225,0,05639734,2,88225,-0,4874342,0,2217115,6,881819E-06,2,88225,-0,9990387,2,88225,0,2054475,2,88225,-0,3746395
0,2222308,2,232395E-05,2,889,-0,8741588,2,889,0,05639734,2,889,-0,495491,0,2222308,8,560311E-06,2,889,-1,003067,2,889,0,1973907,2,889,-0,3625543
0,22275,2,920577E-05,2,89575,-0,8781872,2,89575,0,06042573,2,89575,-0,4914626,0,22275,1,02388E-05,2,89575,-1,003067,2,89575,0,1772488,2,89575,-0,3625543
0,2232692,3,27306E-05,2,9025,-0,8822156,2,9025,0,06445411,2,9025,-0,4914626,0,2232692,1,225299E-05,2,9025,-1,007095,2,9025,0,169192,2,9025,-0,3464408
0,2237885,3,591974E-05,2,90925,-0,8781872,2,90925,0,05639734,2,90925,-0,4834058,0,2237885,1,493858E-05,2,90925,-1,007095,2,90925,0,1490501,2,90925,-0,3504692
0,2243077,3,692683E-05,2,916,-0,8741588,2,916,0,05639734,2,916,-0,4874342,0,2243077,1,795987E-05,2,916,-1,011124,2,916,0,1450217,2,916,-0,3544976
0,2248269,3,205921E-05,2,92275,-0,866102,2,92275,0,04834058,2,92275,-0,495491,0,2248269,1,762417E-05,2,92275,-1,003067,2,92275,0,1450217,2,92275,-0,3544976
0,2253462,2,014191E-05,2,9295,-0,8540169,2,9295,0,05236896,2,9295,-0,5035477,0,2253462,1,460288E-05,2,9295,-0,9869535,2,9295,0,1530785,2,9295,-0,3544976
0,2258654,7,553216E-06,2,93625,-0,8459601,2,93625,0,05639734,2,93625,-0,495491,0,2258654,1,05745E-05,2,93625,-0,9829252,2,93625,0,1490501,2,93625,-0,3625543
0,2263846,6,713969E-07,2,943,-0,8499885,2,943,0,04834058,2,943,-0,4995193,0,2263846,5,203327E-06,2,943,-0,97084,2,943,0,1571069,2,943,-0,3665827
0,2269039,-4,196231E-06,2,94975,-0,8459601,2,94975,0,06042573,2,94975,-0,4834058,0,2269039,1,678492E-07,2,94975,-0,9668117,2,94975,0,1651637,2,94975,-0,3746395
0,2274231,-1,628138E-05,2,9565,-0,8499885,2,9565,0,06445411,2,9565,-0,4874342,0,2274231,-7,888914E-06,2,9565,-0,9627832,2,9565,0,1853056,2,9565,-0,3746395
0,2279423,-3,37377E-05,2,96325,-0,8580453,2,96325,0,07653925,2,96325,-0,4914626,0,2279423,-1,728847E-05,2,96325,-0,97084,2,96325,0,1893339,2,96325,-0,3786679
0,2284615,-5,001907E-05,2,97,-0,8620737,2,97,0,08056764,2,97,-0,495491,0,2284615,-2,165255E-05,2,97,-0,9788967,2,97,0,2014191,2,97,-0,3786679
0,2289808,-5,62295E-05,2,97675,-0,8620737,2,97675,0,07251087,2,97675,-0,495491,0,2289808,-1,963836E-05,2,97675,-0,9869535,2,97675,0,2094758,2,97675,-0,3786679
0,2295,-5,58938E-05,2,9835,-0,8459601,2,9835,0,06848249,2,9835,-0,4995193,0,2295,-1,460288E-05,2,9835,-0,9909819,2,9835,0,2175326,2,9835,-0,3746395
0,2300192,-5,757229E-05,2,99025,-0,8499885,2,99025,0,06042573,2,99025,-0,4995193,0,2300192,-9,063859E-06,2,99025,-0,9909819,2,99025,0,2135042,2,99025,-0,3746395
0,2305385,-5,606165E-05,2,997,-0,8540169,2,997,0,05639734,2,997,-0,4914626,0,2305385,-5,203327E-06,2,997,-0,9869535,2,997,0,2135042,2,997,-0,3746395
0,2310577,-5,152972E-05,3,00375,-0,8540169,3,00375,0,0443122,3,00375,-0,4793774,0,2310577,-1,678492E-07,3,00375,-0,9748684,3,00375,0,2014191,3,00375,-0,3665827
0,2315769,-4,766919E-05,3,0105,-0,8620737,3,0105,0,04834058,3,0105,-0,4713207,0,2315769,4,699778E-06,3,0105,-0,9788967,3,0105,0,1933623,3,0105,-0,3746395
0,2320962,-4,515145E-05,3,01725,-0,8580453,3,01725,0,04834058,3,01725,-0,4511787,0,2320962,5,203327E-06,3,01725,-0,97084,3,01725,0,1893339,3,01725,-0,3746395
0,2326154,-4,515145E-05,3,024,-0,8580453,3,024,0,04834058,3,024,-0,4592355,0,2326154,5,203327E-06,3,024,-0,97084,3,024,0,1933623,3,024,-0,3746395
0,2331346,-4,666209E-05,3,03075,-0,8540169,3,03075,0,05236896,3,03075,-0,4713207,0,2331346,6,881819E-06,3,03075,-0,97084,3,03075,0,1933623,3,03075,-0,3665827
0,2336538,-4,817273E-05,3,0375,-0,8580453,3,0375,0,05236896,3,0375,-0,4793774,0,2336538,8,89601E-06,3,0375,-0,9788967,3,0375,0,1893339,3,0375,-0,3625543
0,2341731,-5,152972E-05,3,04425,-0,8580453,3,04425,0,05639734,3,04425,-0,4713207,0,2341731,9,567407E-06,3,04425,-0,9788967,3,04425,0,1893339,3,04425,-0,358526
0,2346923,-6,64683E-05,3,051,-0,866102,3,051,0,06042573,3,051,-0,4713207,0,2346923,9,903106E-06,3,051,-0,9909819,3,051,0,1933623,3,051,-0,358526
0,2352115,-0,0001055772,3,05775,-0,866102,3,05775,0,07251087,3,05775,-0,4793774,0,2352115,7,553216E-06,3,05775,-0,9909819,3,05775,0,1933623,3,05775,-0,3464408
0,2357308,-0,0001431754,3,0645,-0,8701304,3,0645,0,08056764,3,0645,-0,4914626,0,2357308,5,539025E-06,3,0645,-0,9990387,3,0645,0,1853056,3,0645,-0,3544976
0,23625,-0,000145861,3,07125,-0,8620737,3,07125,0,07653925,3,07125,-0,4914626,0,23625,4,531929E-06,3,07125,-1,003067,3,07125,0,1933623,3,07125,-0,3464408
0,2367692,-0,0001149767,3,078,-0,8620737,3,078,0,06445411,3,078,-0,4834058,0,2367692,4,196231E-06,3,078,-1,007095,3,078,0,1893339,3,078,-0,3504692
0,2372885,-8,006409E-05,3,08475,-0,8701304,3,08475,0,0443122,3,08475,-0,4834058,0,2372885,6,881819E-06,3,08475,-0,9950103,3,08475,0,1812772,3,08475,-0,3544976
0,2378077,-4,985122E-05,3,0915,-0,8781872,3,0915,0,04834058,3,0915,-0,4834058,0,2378077,1,292439E-05,3,0915,-0,9990387,3,0915,0,169192,3,0915,-0,3625543
0,2383269,-2,970932E-05,3,09825,-0,8620737,3,09825,0,06445411,3,09825,-0,4914626,0,2383269,1,594568E-05,3,09825,-0,9950103,3,09825,0,1732204,3,09825,-0,3544976
0,2388462,-2,333105E-05,3,105,-0,8540169,3,105,0,06848249,3,105,-0,4995193,0,2388462,1,376364E-05,3,105,-0,9909819,3,105,0,1732204,3,105,-0,3625543
0,2393654,-2,31632E-05,3,11175,-0,8459601,3,11175,0,06042573,3,11175,-0,495491,0,2393654,8,392462E-06,3,11175,-0,9788967,3,11175,0,1812772,3,11175,-0,358526
0,2398846,-1,560998E-05,3,1185,-0,8419318,3,1185,0,04834058,3,1185,-0,4914626,0,2398846,2,18204E-06,3,1185,-0,9547265,3,1185,0,1812772,3,1185,-0,3665827
0,2404038,1,695277E-05,3,12525,-0,833875,3,12525,0,05236896,3,12525,-0,4793774,0,2404038,2,685588E-06,3,12525,-0,9426414,3,12525,0,1812772,3,12525,-0,358526
0,2409231,7,956054E-05,3,132,-0,8459601,3,132,0,04834058,3,132,-0,4753491,0,2409231,7,721065E-06,3,132,-0,9426414,3,132,0,1812772,3,132,-0,3706111
0,2414423,0,0001465324,3,13875,-0,8540169,3,13875,0,05236896,3,13875,-0,4914626,0,2414423,1,05745E-05,3,13875,-0,9466697,3,13875,0,1853056,3,13875,-0,3786679
0,2419615,0,0001985657,3,1455,-0,866102,3,1455,0,05236896,3,1455,-0,4995193,0,2419615,1,05745E-05,3,1455,-0,9587549,3,1455,0,1933623,3,1455,-0,3826963
0,2424808,0,0002388495,3,15225,-0,8741588,3,15225,0,06848249,3,15225,-0,5116045,0,2424808,1,326009E-05,3,15225,-0,9748684,3,15225,0,2135042,3,15225,-0,3826963
0,243,0,0002710765,3,159,-0,8741588,3,159,0,07251087,3,159,-0,5075761,0,243,1,728847E-05,3,159,-0,9950103,3,159,0,2135042,3,159,-0,3826963
0,2435192,0,0002999466,3,16575,-0,8741588,3,16575,0,06445411,3,16575,-0,4914626,0,2435192,1,846342E-05,3,16575,-1,011124,3,16575,0,2255894,3,16575,-0,3786679
0,2440385,0,0003345236,3,1725,-0,866102,3,1725,0,06445411,3,1725,-0,495491,0,2440385,1,863126E-05,3,1725,-1,015152,3,1725,0,2175326,3,1725,-0,3665827
0,2445577,0,0003758144,3,17925,-0,8540169,3,17925,0,06445411,3,17925,-0,4914626,0,2445577,1,997406E-05,3,17925,-1,007095,3,17925,0,2175326,3,17925,-0,3544976
0,2450769,0,0004241551,3,186,-0,8499885,3,186,0,07251087,3,186,-0,4874342,0,2450769,2,047761E-05,3,186,-0,9950103,3,186,0,2054475,3,186,-0,3625543
0,2455962,0,0004751812,3,19275,-0,8459601,3,19275,0,07251087,3,19275,-0,4874342,0,2455962,2,232395E-05,3,19275,-0,9748684,3,19275,0,1933623,3,19275,-0,358526
0,2461154,0,0005060654,3,1995,-0,8379034,3,1995,0,07251087,3,1995,-0,4874342,0,2461154,2,652018E-05,3,1995,-0,9587549,3,1995,0,1732204,3,1995,-0,3665827
0,2466346,0,0004966659,3,20625,-0,8419318,3,20625,0,07251087,3,20625,-0,4914626,0,2466346,3,608759E-05,3,20625,-0,9345846,3,20625,0,1651637,3,20625,-0,3665827
0,2471538,0,0004503395,3,213,-0,8419318,3,213,0,07653925,3,213,-0,4874342,0,2471538,4,649424E-05,3,213,-0,9144427,3,213,0,1571069,3,213,-0,3665827
0,2476731,0,0003687648,3,21975,-0,833875,3,21975,0,06848249,3,21975,-0,4834058,0,2476731,5,069047E-05,3,21975,-0,9224994,3,21975,0,1530785,3,21975,-0,3746395
0,2481923,0,0002603342,3,2265,-0,8258182,3,2265,0,06445411,3,2265,-0,4753491,0,2481923,5,069047E-05,3,2265,-0,9265279,3,2265,0,1571069,3,2265,-0,3706111
0,2487115,0,0001470359,3,23325,-0,8298466,3,23325,0,06445411,3,23325,-0,4753491,0,2487115,4,901198E-05,3,23325,-0,9305562,3,23325,0,1611353,3,23325,-0,3625543
0,2492308,4,917983E-05,3,24,-0,8379034,3,24,0,07653925,3,24,-0,4793774,0,2492308,4,666209E-05,3,24,-0,9426414,3,24,0,1611353,3,24,-0,3665827
0,24975,-1,762417E-05,3,24675,-0,8459601,3,24675,0,08459602,3,24675,-0,4753491,0,24975,4,263371E-05,3,24675,-0,9547265,3,24675,0,1732204,3,24675,-0,3625543
0,2502692,-6,260777E-05,3,2535,-0,8499885,3,2535,0,08459602,3,2535,-0,4753491,0,2502692,3,810178E-05,3,2535,-0,9788967,3,2535,0,1893339,3,2535,-0,358526
0,2507885,-0,0001018845,3,26025,-0,8499885,3,26025,0,09265278,3,26025,-0,4592355,0,2507885,3,289845E-05,3,26025,-0,9909819,3,26025,0,2014191,3,26025,-0,358526
0,2513077,-0,0001290761,3,267,-0,8540169,3,267,0,09265278,3,267,-0,4592355,0,2513077,2,853437E-05,3,267,-1,003067,3,267,0,2135042,3,267,-0,3625543
0,2518269,-0,0001389792,3,27375,-0,8540169,3,27375,0,09668116,3,27375,-0,4552071,0,2518269,2,366674E-05,3,27375,-1,015152,3,27375,0,221561,3,27375,-0,3544976
0,2523462,-0,0001371328,3,2805,-0,8540169,3,2805,0,09265278,3,2805,-0,4592355,0,2523462,1,963836E-05,3,2805,-1,019181,3,2805,0,2255894,3,2805,-0,3665827
0,2528654,-0,0001367971,3,28725,-0,8540169,3,28725,0,09265278,3,28725,-0,4632639,0,2528654,1,527428E-05,3,28725,-1,019181,3,28725,0,2175326,3,28725,-0,358526
0,2533846,-0,0001438468,3,294,-0,8499885,3,294,0,09265278,3,294,-0,4632639,0,2533846,1,05745E-05,3,294,-1,011124,3,294,0,2094758,3,294,-0,3625543
0,2539038,-0,0001517357,3,30075,-0,8499885,3,30075,0,09668116,3,30075,-0,4592355,0,2539038,7,888914E-06,3,30075,-0,9950103,3,30075,0,1973907,3,30075,-0,3464408
0,2544231,-0,0001514,3,3075,-0,8499885,3,3075,0,09668116,3,3075,-0,4592355,0,2544231,2,853437E-06,3,3075,-0,9829252,3,3075,0,1772488,3,3075,-0,3424124
0,2549423,-0,0001398184,3,31425,-0,8540169,3,31425,0,09668116,3,31425,-0,4552071,0,2549423,-2,517739E-06,3,31425,-0,9788967,3,31425,0,169192,3,31425,-0,3303273
0,2554615,-0,0001257191,3,321,-0,866102,3,321,0,09668116,3,321,-0,4552071,0,2554615,-4,699778E-06,3,321,-0,9788967,3,321,0,1611353,3,321,-0,3182422
0,2559808,-0,0001141375,3,32775,-0,8701304,3,32775,0,09265278,3,32775,-0,4471503,0,2559808,-5,203327E-06,3,32775,-0,9869535,3,32775,0,1651637,3,32775,-0,3142138
0,2565,-0,00010692,3,3345,-0,866102,3,3345,0,08056764,3,3345,-0,4390936,0,2565,-5,874724E-06,3,3345,-0,9990387,3,3345,0,1611353,3,3345,-0,3222705
0,2570192,-0,0001015488,3,34125,-0,866102,3,34125,0,07653925,3,34125,-0,4350652,0,2570192,-5,035477E-06,3,34125,-1,015152,3,34125,0,169192,3,34125,-0,3101854
0,2575385,-9,483482E-05,3,348,-0,866102,3,348,0,07251087,3,348,-0,4471503,0,2575385,-1,846342E-06,3,348,-1,019181,3,348,0,169192,3,348,-0,3222705
0,2580577,-8,82887E-05,3,35475,-0,866102,3,35475,0,08056764,3,35475,-0,4592355,0,2580577,2,517739E-06,3,35475,-1,019181,3,35475,0,1571069,3,35475,-0,3222705
0,2585769,-8,140688E-05,3,3615,-0,866102,3,3615,0,08459602,3,3615,-0,4753491,0,2585769,8,224613E-06,3,3615,-1,023209,3,3615,0,1490501,3,3615,-0,3262989
0,2590961,-7,570001E-05,3,36825,-0,8620737,3,36825,0,08056764,3,36825,-0,495491,0,2590961,7,217517E-06,3,36825,-1,015152,3,36825,0,1450217,3,36825,-0,3303273
0,2596154,-7,83856E-05,3,375,-0,8620737,3,375,0,08056764,3,375,-0,495491,0,2596154,2,853437E-06,3,375,-1,003067,3,375,0,1409934,3,375,-0,3504692
0,2601346,-8,711375E-05,3,38175,-0,8540169,3,38175,0,07653925,3,38175,-0,495491,0,2601346,-3,860533E-06,3,38175,-0,9869535,3,38175,0,1409934,3,38175,-0,3544976
0,2606539,-9,332418E-05,3,3885,-0,8459601,3,3885,0,07653925,3,3885,-0,4874342,0,2606539,-8,89601E-06,3,3885,-0,9748684,3,3885,0,136965,3,3885,-0,3706111
0,2611731,-9,651331E-05,3,39525,-0,8419318,3,39525,0,07251087,3,39525,-0,4793774,0,2611731,-6,210422E-06,3,39525,-0,9627832,3,39525,0,1490501,3,39525,-0,3625543
0,2616923,-9,047074E-05,3,402,-0,8459601,3,402,0,07653925,3,402,-0,4713207,0,2616923,1,678492E-07,3,402,-0,9587549,3,402,0,1611353,3,402,-0,3665827
0,2622115,-7,553216E-05,3,40875,-0,8459601,3,40875,0,0886244,3,40875,-0,4672923,0,2622115,2,853437E-06,3,40875,-0,9506981,3,40875,0,1732204,3,40875,-0,3665827
0,2627308,-6,160067E-05,3,4155,-0,8499885,3,4155,0,08459602,3,4155,-0,4713207,0,2627308,3,692683E-06,3,4155,-0,9547265,3,4155,0,1853056,3,4155,-0,3625543
0,26325,-5,018692E-05,3,42225,-0,8540169,3,42225,0,07653925,3,42225,-0,4713207,0,26325,6,881819E-06,3,42225,-0,9587549,3,42225,0,2054475,3,42225,-0,3625543
0,2637692,-3,390555E-05,3,429,-0,8620737,3,429,0,06042573,3,429,-0,4632639,0,2637692,1,007095E-05,3,429,-0,9587549,3,429,0,2135042,3,429,-0,3665827
0,2642885,-1,19173E-05,3,43575,-0,8620737,3,43575,0,04834058,3,43575,-0,4753491,0,2642885,1,326009E-05,3,43575,-0,9627832,3,43575,0,221561,3,43575,-0,3665827
0,2648077,1,19173E-05,3,4425,-0,866102,3,4425,0,04834058,3,4425,-0,4834058,0,2648077,1,644923E-05,3,4425,-0,9668117,3,4425,0,2255894,3,4425,-0,3746395
0,2653269,3,508049E-05,3,44925,-0,8540169,3,44925,0,05639734,3,44925,-0,4834058,0,2653269,2,131685E-05,3,44925,-0,97084,3,44925,0,221561,3,44925,-0,3746395
0,2658462,5,673304E-05,3,456,-0,8580453,3,456,0,06042573,3,456,-0,4834058,0,2658462,2,735943E-05,3,456,-0,9748684,3,456,0,2175326,3,456,-0,3706111
0,2663654,7,570001E-05,3,46275,-0,8620737,3,46275,0,07653925,3,46275,-0,4834058,0,2663654,2,870222E-05,3,46275,-0,9748684,3,46275,0,2135042,3,46275,-0,3706111
0,2668846,9,164569E-05,3,4695,-0,8580453,3,4695,0,07251087,3,4695,-0,4672923,0,2668846,2,601663E-05,3,4695,-0,9788967,3,4695,0,2054475,3,4695,-0,3746395
0,2674038,0,0001055772,3,47625,-0,866102,3,47625,0,06848249,3,47625,-0,4592355,0,2674038,2,601663E-05,3,47625,-0,9869535,3,47625,0,1893339,3,47625,-0,3665827
0,2679231,0,0001166552,3,483,-0,866102,3,483,0,06445411,3,483,-0,4592355,0,2679231,2,568093E-05,3,483,-0,9869535,3,483,0,1893339,3,483,-0,3665827
0,2684423,0,000119173,3,48975,-0,8701304,3,48975,0,06848249,3,48975,-0,4672923,0,2684423,2,349889E-05,3,48975,-0,9950103,3,48975,0,1853056,3,48975,-0,3544976
0,2689615,0,0001097734,3,4965,-0,8741588,3,4965,0,06042573,3,4965,-0,4672923,0,2689615,2,131685E-05,3,4965,-0,9950103,3,4965,0,1812772,3,4965,-0,3625543
0,2694808,9,483482E-05,3,50325,-0,8741588,3,50325,0,05639734,3,50325,-0,4632639,0,2694808,1,896696E-05,3,50325,-0,9990387,3,50325,0,1853056,3,50325,-0,3625543
0,27,7,335011E-05,3,51,-0,8741588,3,51,0,04834058,3,51,-0,4552071,0,27,1,560998E-05,3,51,-0,9909819,3,51,0,1893339,3,51,-0,3665827
0,2705192,3,743038E-05,3,51675,-0,8701304,3,51675,0,05236896,3,51675,-0,4390936,0,2705192,1,141375E-05,3,51675,-0,9869535,3,51675,0,1933623,3,51675,-0,3706111
0,2710385,-6,54612E-06,3,5235,-0,866102,3,5235,0,06042573,3,5235,-0,4390936,0,2710385,4,867628E-06,3,5235,-0,9829252,3,5235,0,1933623,3,5235,-0,3746395
0,2715577,-4,850843E-05,3,53025,-0,866102,3,53025,0,08056764,3,53025,-0,4471503,0,2715577,-2,18204E-06,3,53025,-0,9788967,3,53025,0,1933623,3,53025,-0,3746395
0,2720769,-7,486076E-05,3,537,-0,866102,3,537,0,09668116,3,537,-0,4672923,0,2720769,-8,560311E-06,3,537,-0,9829252,3,537,0,1933623,3,537,-0,3786679
0,2725962,-8,207828E-05,3,54375,-0,866102,3,54375,0,09265278,3,54375,-0,4672923,0,2725962,-1,225299E-05,3,54375,-0,9869535,3,54375,0,2014191,3,54375,-0,3826963
0,2731154,-7,486076E-05,3,5505,-0,866102,3,5505,0,08056764,3,5505,-0,4713207,0,2731154,-1,628138E-05,3,5505,-0,9909819,3,5505,0,221561,3,5505,-0,3706111
0,2736346,-6,428627E-05,3,55725,-0,8540169,3,55725,0,07653925,3,55725,-0,4632639,0,2736346,-1,745632E-05,3,55725,-0,9990387,3,55725,0,2296178,3,55725,-0,3625543
0,2741539,-5,387961E-05,3,564,-0,8459601,3,564,0,07653925,3,564,-0,4471503,0,2741539,-1,779202E-05,3,564,-1,007095,3,564,0,2417029,3,564,-0,358526
0,2746731,-4,46479E-05,3,57075,-0,833875,3,57075,0,07653925,3,57075,-0,4310368,0,2746731,-1,527428E-05,3,57075,-1,003067,3,57075,0,2497597,3,57075,-0,3464408
0,2751923,-3,608759E-05,3,5775,-0,8258182,3,5775,0,07251087,3,5775,-0,4189517,0,2751923,-1,107805E-05,3,5775,-0,9909819,3,5775,0,2497597,3,5775,-0,3504692
0,2757115,-2,366674E-05,3,58425,-0,8258182,3,58425,0,06848249,3,58425,-0,4149233,0,2757115,-8,560311E-06,3,58425,-0,9748684,3,58425,0,2537881,3,58425,-0,3504692
0,2762308,-1,107805E-05,3,591,-0,8298466,3,591,0,07251087,3,591,-0,4149233,0,2762308,-6,042573E-06,3,591,-0,9627832,3,591,0,2457313,3,591,-0,3464408
0,27675,5,035478E-07,3,59775,-0,833875,3,59775,0,06848249,3,59775,-0,4108949,0,27675,-2,014191E-06,3,59775,-0,9506981,3,59775,0,2497597,3,59775,-0,3424124
0,2772692,9,231708E-06,3,6045,-0,8379034,3,6045,0,07251087,3,6045,-0,4189517,0,2772692,5,203327E-06,3,6045,-0,9506981,3,6045,0,2417029,3,6045,-0,3383841
0,2777885,7,721065E-06,3,61125,-0,8459601,3,61125,0,06848249,3,61125,-0,4270085,0,2777885,1,107805E-05,3,61125,-0,9426414,3,61125,0,2376745,3,61125,-0,3383841
0,2783077,-5,035477E-06,3,618,-0,8580453,3,618,0,06042573,3,618,-0,4270085,0,2783077,1,141375E-05,3,618,-0,9587549,3,618,0,221561,3,618,-0,3303273
0,2788269,-2,21561E-05,3,62475,-0,8540169,3,62475,0,05639734,3,62475,-0,4350652,0,2788269,1,007095E-05,3,62475,-0,97084,3,62475,0,2135042,3,62475,-0,3262989
0,2793462,-3,743038E-05,3,6315,-0,8580453,3,6315,0,05639734,3,6315,-0,4390936,0,2793462,9,231708E-06,3,6315,-0,9869535,3,6315,0,1973907,3,6315,-0,3343557
0,2798654,-4,414435E-05,3,63825,-0,866102,3,63825,0,05639734,3,63825,-0,4390936,0,2798654,9,903106E-06,3,63825,-1,011124,3,63825,0,1973907,3,63825,-0,3424124
0,2803846,-4,213016E-05,3,645,-0,8741588,3,645,0,06445411,3,645,-0,443122,0,2803846,1,09102E-05,3,645,-1,027237,3,645,0,1853056,3,645,-0,3504692
0,2809038,-3,927673E-05,3,65175,-0,8781872,3,65175,0,06848249,3,65175,-0,4350652,0,2809038,1,02388E-05,3,65175,-1,035294,3,65175,0,1933623,3,65175,-0,3504692
0,2814231,-3,575189E-05,3,6585,-0,8822156,3,6585,0,07251087,3,6585,-0,4189517,0,2814231,7,217517E-06,3,6585,-1,043351,3,6585,0,1973907,3,6585,-0,358526
0,2819423,-3,910888E-05,3,66525,-0,8862439,3,66525,0,06848249,3,66525,-0,4189517,0,2819423,3,189135E-06,3,66525,-1,035294,3,66525,0,2094758,3,66525,-0,3464408
0,2824616,-5,404746E-05,3,672,-0,8943007,3,672,0,06848249,3,672,-0,4270085,0,2824616,1,007096E-06,3,672,-1,015152,3,672,0,2175326,3,672,-0,3424124
0,2829808,-6,529336E-05,3,67875,-0,8862439,3,67875,0,06445411,3,67875,-0,4310368,0,2829808,-2,853437E-06,3,67875,-1,007095,3,67875,0,2255894,3,67875,-0,3383841
0,2835,-5,55581E-05,3,6855,-0,8781872,3,6855,0,06042573,3,6855,-0,4310368,0,2835,-4,196231E-06,3,6855,-1,003067,3,6855,0,2175326,3,6855,-0,3262989
0,2840192,-2,484169E-05,3,69225,-0,8701304,3,69225,0,05639734,3,69225,-0,4149233,0,2840192,-1,510643E-06,3,69225,-0,9950103,3,69225,0,2135042,3,69225,-0,3182422
0,2845385,1,12459E-05,3,699,-0,8701304,3,699,0,05236896,3,699,-0,4229801,0,2845385,2,18204E-06,3,699,-0,9869535,3,699,0,1973907,3,699,-0,3222705
0,2850577,3,038071E-05,3,70575,-0,866102,3,70575,0,05236896,3,70575,-0,4270085,0,2850577,5,035477E-06,3,70575,-0,9909819,3,70575,0,1812772,3,70575,-0,3142138
0,2855769,3,27306E-05,3,7125,-0,8620737,3,7125,0,06042573,3,7125,-0,4350652,0,2855769,8,560311E-06,3,7125,-0,9909819,3,7125,0,1732204,3,7125,-0,3142138
0,2860962,2,668803E-05,3,71925,-0,8580453,3,71925,0,05639734,3,71925,-0,4229801,0,2860962,9,231708E-06,3,71925,-0,9950103,3,71925,0,1772488,3,71925,-0,3182422
0,2866154,2,198825E-05,3,726,-0,8701304,3,726,0,04028382,3,726,-0,4350652,0,2866154,1,007095E-05,3,726,-0,9950103,3,726,0,1812772,3,726,-0,3424124
0,2871346,2,400244E-05,3,73275,-0,8781872,3,73275,0,03222705,3,73275,-0,4390936,0,2871346,1,12459E-05,3,73275,-0,9869535,3,73275,0,1933623,3,73275,-0,3504692
0,2876539,2,500954E-05,3,7395,-0,8902723,3,7395,0,02819867,3,7395,-0,4471503,0,2876539,7,553216E-06,3,7395,-0,9788967,3,7395,0,2014191,3,7395,-0,3625543
0,2881731,2,534523E-05,3,74625,-0,8902723,3,74625,0,04028382,3,74625,-0,4471503,0,2881731,1,678492E-06,3,74625,-0,9829252,3,74625,0,221561,3,74625,-0,3665827
0,2886923,3,155566E-05,3,753,-0,8822156,3,753,0,04834058,3,753,-0,4471503,0,2886923,-2,853437E-06,3,753,-0,9788967,3,753,0,2255894,3,753,-0,3786679
0,2892115,3,642328E-05,3,75975,-0,866102,3,75975,0,05236896,3,75975,-0,4511787,0,2892115,-4,36408E-06,3,75975,-0,9829252,3,75975,0,2457313,3,75975,-0,3786679
0,2897308,3,457694E-05,3,7665,-0,8620737,3,7665,0,04834058,3,7665,-0,4511787,0,2897308,-6,54612E-06,3,7665,-0,9829252,3,7665,0,2618448,3,7665,-0,3786679
0,29025,3,004501E-05,3,77325,-0,8620737,3,77325,0,05639734,3,77325,-0,4552071,0,29025,-1,225299E-05,3,77325,-0,9668117,3,77325,0,2618448,3,77325,-0,3746395
0,2907692,3,172351E-05,3,78,-0,8580453,3,78,0,06445411,3,78,-0,4592355,0,2907692,-1,594568E-05,3,78,-0,9627832,3,78,0,2578164,3,78,-0,3706111
0,2912885,4,615854E-05,3,78675,-0,8459601,3,78675,0,06848249,3,78675,-0,4552071,0,2912885,-1,460288E-05,3,78675,-0,9547265,3,78675,0,2457313,3,78675,-0,358526
0,2918077,7,066453E-05,3,7935,-0,8540169,3,7935,0,06445411,3,7935,-0,4552071,0,2918077,-1,09102E-05,3,7935,-0,9587549,3,7935,0,2376745,3,7935,-0,3544976
0,2923269,8,224613E-05,3,80025,-0,8540169,3,80025,0,06445411,3,80025,-0,4511787,0,2923269,-7,553216E-06,3,80025,-0,9547265,3,80025,0,2255894,3,80025,-0,3544976
0,2928461,6,764325E-05,3,807,-0,8580453,3,807,0,04834058,3,807,-0,4471503,0,2928461,-8,224613E-06,3,807,-0,9668117,3,807,0,221561,3,807,-0,3544976
0,2933654,3,944457E-05,3,81375,-0,866102,3,81375,0,04028382,3,81375,-0,4270085,0,2933654,-9,567407E-06,3,81375,-0,9748684,3,81375,0,221561,3,81375,-0,358526
0,2938846,1,762417E-05,3,8205,-0,8540169,3,8205,0,03625543,3,8205,-0,4310368,0,2938846,-7,217517E-06,3,8205,-0,9748684,3,8205,0,2255894,3,8205,-0,3504692
0,2944039,6,210422E-06,3,82725,-0,8499885,3,82725,0,02819867,3,82725,-0,4310368,0,2944039,1,174945E-06,3,82725,-0,9788967,3,82725,0,2296178,3,82725,-0,3544976
0,2949231,8,392462E-07,3,834,-0,8419318,3,834,0,02014191,3,834,-0,4310368,0,2949231,1,12459E-05,3,834,-0,9668117,3,834,0,2376745,3,834,-0,3544976
0,2954423,4,36408E-06,3,84075,-0,8419318,3,84075,0,02014191,3,84075,-0,4189517,0,2954423,1,762417E-05,3,84075,-0,9627832,3,84075,0,2255894,3,84075,-0,3504692
0,2959615,9,399557E-06,3,8475,-0,8499885,3,8475,0,02014191,3,8475,-0,4028382,0,2959615,2,098116E-05,3,8475,-0,9506981,3,8475,0,2175326,3,8475,-0,3343557
0,2964808,6,210422E-06,3,85425,-0,8620737,3,85425,0,01611353,3,85425,-0,3947814,0,2964808,2,21561E-05,3,85425,-0,9426414,3,85425,0,2135042,3,85425,-0,3343557
0,297,1,007096E-06,3,861,-0,8902723,3,861,0,02819867,3,861,-0,4028382,0,297,2,450599E-05,3,861,-0,9668117,3,861,0,2014191,3,861,-0,3262989
0,2975192,5,035478E-07,3,86775,-0,9023575,3,86775,0,05236896,3,86775,-0,4189517,0,2975192,2,735943E-05,3,86775,-0,9909819,3,86775,0,1933623,3,86775,-0,3222705
0,2980385,3,189135E-06,3,8745,-0,9023575,3,8745,0,07251087,3,8745,-0,4390936,0,2980385,2,467384E-05,3,8745,-1,023209,3,8745,0,1893339,3,8745,-0,3222705
0,2985577,7,217517E-06,3,88125,-0,8902723,3,88125,0,08056764,3,88125,-0,4511787,0,2985577,2,098116E-05,3,88125,-1,039322,3,88125,0,1893339,3,88125,-0,3021286
0,2990769,9,903106E-06,3,888,-0,8781872,3,888,0,06848249,3,888,-0,4592355,0,2990769,1,829557E-05,3,888,-1,047379,3,888,0,1973907,3,888,-0,3101854
0,2995962,1,326009E-05,3,89475,-0,8499885,3,89475,0,04834058,3,89475,-0,4552071,0,2995962,1,12459E-05,3,89475,-1,039322,3,89475,0,2054475,3,89475,-0,3142138
0,3001154,2,383459E-05,3,9015,-0,833875,3,9015,0,02819867,3,9015,-0,4592355,0,3001154,1,678492E-07,3,9015,-1,015152,3,9015,0,2175326,3,9015,-0,3303273
0,3006346,4,649424E-05,3,90825,-0,8298466,3,90825,0,02417029,3,90825,-0,4511787,0,3006346,-3,524834E-06,3,90825,-0,9829252,3,90825,0,221561,3,90825,-0,3464408
0,3011538,7,234302E-05,3,915,-0,8298466,3,915,0,02819867,3,915,-0,4471503,0,3011538,-1,007096E-06,3,915,-0,9506981,3,915,0,2135042,3,915,-0,3665827
0,3016731,9,651331E-05,3,92175,-0,8298466,3,92175,0,03625543,3,92175,-0,4471503,0,3016731,2,18204E-06,3,92175,-0,9144427,3,92175,0,2054475,3,92175,-0,3706111
0,3021923,0,0001196765,3,9285,-0,8459601,3,9285,0,0443122,3,9285,-0,4471503,0,3021923,5,706875E-06,3,9285,-0,9063858,3,9285,0,1893339,3,9285,-0,3665827
0,3027115,0,0001394827,3,93525,-0,8499885,3,93525,0,05236896,3,93525,-0,443122,0,3027115,1,242084E-05,3,93525,-0,9104142,3,93525,0,1933623,3,93525,-0,3625543
0,3032308,0,0001502251,3,942,-0,8499885,3,942,0,03625543,3,942,-0,4229801,0,3032308,2,232395E-05,3,942,-0,9224994,3,942,0,2054475,3,942,-0,3625543
0,30375,0,0001488823,3,94875,-0,8459601,3,94875,0,02417029,3,94875,-0,4028382,0,30375,3,038071E-05,3,94875,-0,9386129,3,94875,0,2296178,3,94875,-0,3504692
0,3042692,0,0001388113,3,9555,-0,8499885,3,9555,0,008056764,3,9555,-0,3988098,0,3042692,3,608759E-05,3,9555,-0,9547265,3,9555,0,2618448,3,9555,-0,3464408
0,3047885,0,0001220264,3,96225,-0,8499885,3,96225,-0,004028382,3,96225,-0,4028382,0,3047885,4,347295E-05,3,96225,-0,9627832,3,96225,0,2900435,3,96225,-0,3544976
0,3053077,9,98703E-05,3,969,-0,8540169,3,969,-0,01611353,3,969,-0,4028382,0,3053077,5,304036E-05,3,969,-0,97084,3,969,0,3101854,3,969,-0,3625543
0,3058269,7,469291E-05,3,97575,-0,8540169,3,97575,-0,008056764,3,97575,-0,3988098,0,3058269,5,690089E-05,3,97575,-0,97084,3,97575,0,3182422,3,97575,-0,3625543
0,3063461,4,817273E-05,3,9825,-0,8540169,3,9825,0,01208515,3,9825,-0,4028382,0,3063461,5,018692E-05,3,9825,-0,9668117,3,9825,0,3142138,3,9825,-0,3665827
0,3068654,1,795987E-05,3,98925,-0,8419318,3,98925,0,03222705,3,98925,-0,3988098,0,3068654,3,978027E-05,3,98925,-0,9547265,3,98925,0,306157,3,98925,-0,3665827
0,3073846,-1,997406E-05,3,996,-0,8459601,3,996,0,04834058,3,996,-0,3988098,0,3073846,2,903792E-05,3,996,-0,9466697,3,996,0,2981002,3,996,-0,3544976
0,3079039,-6,378272E-05,4,00275,-0,8419318,4,00275,0,04834058,4,00275,-0,3988098,0,3079039,1,577783E-05,4,00275,-0,9426414,4,00275,0,2900435,4,00275,-0,3424124
0,3084231,-9,634547E-05,4,0095,-0,8459601,4,0095,0,05236896,4,0095,-0,4068666,0,3084231,4,028382E-06,4,0095,-0,9426414,4,0095,0,2819867,4,0095,-0,3383841
0,3089423,-0,0001045701,4,01625,-0,8540169,4,01625,0,04028382,4,01625,-0,4068666,0,3089423,-8,392462E-07,4,01625,-0,9506981,4,01625,0,27393,4,01625,-0,3222705
0,3094615,-9,768826E-05,4,023,-0,8701304,4,023,0,02014191,4,023,-0,4028382,0,3094615,0,4,023,-0,97084,4,023,0,2457313,4,023,-0,3142138
0,3099808,-8,140688E-05,4,02975,-0,8741588,4,02975,0,02417029,4,02975,-0,4028382,0,3099808,4,531929E-06,4,02975,-0,9909819,4,02975,0,2376745,4,02975,-0,3101854
0,3105,-6,562906E-05,4,0365,-0,8701304,4,0365,0,02819867,4,0365,-0,4068666,0,3105,1,007095E-05,4,0365,-1,023209,4,0365,0,2175326,4,0365,-0,306157
0,3110192,-5,992218E-05,4,04325,-0,866102,4,04325,0,03625543,4,04325,-0,4028382,0,3110192,1,15816E-05,4,04325,-1,035294,4,04325,0,1933623,4,04325,-0,306157
0,3115385,-6,495766E-05,4,05,-0,8580453,4,05,0,0443122,4,05,-0,4028382,0,3115385,7,721065E-06,4,05,-1,047379,4,05,0,1812772,4,05,-0,306157
0,3120577,-7,167162E-05,4,05675,-0,866102,4,05675,0,05236896,4,05675,-0,3947814,0,3120577,1,846342E-06,4,05675,-1,039322,4,05675,0,169192,4,05675,-0,3142138
0,3125769,-6,797894E-05,4,0635,-0,8701304,4,0635,0,05236896,4,0635,-0,4068666,0,3125769,-3,692683E-06,4,0635,-1,027237,4,0635,0,1571069,4,0635,-0,3222705
0,3130962,-5,035477E-05,4,07025,-0,8741588,4,07025,0,06042573,4,07025,-0,4229801,0,3130962,-6,378271E-06,4,07025,-1,007095,4,07025,0,1651637,4,07025,-0,3303273
0,3136154,-2,668803E-05,4,077,-0,8822156,4,077,0,05639734,4,077,-0,4350652,0,3136154,-7,553216E-06,4,077,-0,9950103,4,077,0,1772488,4,077,-0,3262989
0,3141346,-2,349889E-06,4,08375,-0,8943007,4,08375,0,05236896,4,08375,-0,4350652,0,3141346,-1,12459E-05,4,08375,-0,9788967,4,08375,0,1893339,4,08375,-0,3303273
0,3146538,2,064546E-05,4,0905,-0,8902723,4,0905,0,05639734,4,0905,-0,4350652,0,3146538,-1,628138E-05,4,0905,-0,9668117,4,0905,0,2054475,4,0905,-0,3222705
0,3151731,3,424125E-05,4,09725,-0,8943007,4,09725,0,0443122,4,09725,-0,4189517,0,3151731,-1,594568E-05,4,09725,-0,9627832,4,09725,0,2094758,4,09725,-0,3303273
0,3156923,3,27306E-05,4,104,-0,8902723,4,104,0,04028382,4,104,-0,4149233,0,3156923,-1,426719E-05,4,104,-0,9829252,4,104,0,2336462,4,104,-0,3343557
0,3162116,2,400244E-05,4,11075,-0,8822156,4,11075,0,04834058,4,11075,-0,4270085,0,3162116,-1,661708E-05,4,11075,-0,9950103,4,11075,0,2417029,4,11075,-0,3383841
0,3167308,1,594568E-05,4,1175,-0,8822156,4,1175,0,05639734,4,1175,-0,4310368,0,3167308,-1,913481E-05,4,1175,-1,019181,4,1175,0,2497597,4,1175,-0,3464408
0,31725,1,342794E-05,4,12425,-0,8781872,4,12425,0,06445411,4,12425,-0,4189517,0,31725,-1,560998E-05,4,12425,-1,035294,4,12425,0,2618448,4,12425,-0,3504692
0,3177692,1,594568E-05,4,131,-0,8741588,4,131,0,06445411,4,131,-0,4189517,0,3177692,-9,399557E-06,4,131,-1,043351,4,131,0,2578164,4,131,-0,3424124
0,3182885,1,728847E-05,4,13775,-0,8741588,4,13775,0,05639734,4,13775,-0,4229801,0,3182885,-4,699778E-06,4,13775,-1,031266,4,13775,0,2537881,4,13775,-0,3383841
0,3188077,1,460288E-05,4,1445,-0,8701304,4,1445,0,04028382,4,1445,-0,4229801,0,3188077,-5,035478E-07,4,1445,-1,015152,4,1445,0,2417029,4,1445,-0,3424124
0,3193269,8,560311E-06,4,15125,-0,8741588,4,15125,0,02417029,4,15125,-0,4270085,0,3193269,3,189135E-06,4,15125,-1,003067,4,15125,0,2336462,4,15125,-0,3464408
0,3198462,-4,531929E-06,4,158,-0,866102,4,158,0,02417029,4,158,-0,4350652,0,3198462,7,217517E-06,4,158,-0,9909819,4,158,0,2135042,4,158,-0,3544976
0,3203654,-2,534523E-05,4,16475,-0,866102,4,16475,0,02417029,4,16475,-0,4390936,0,3203654,1,258869E-05,4,16475,-0,9829252,4,16475,0,2014191,4,16475,-0,3464408
0,3208846,-4,649424E-05,4,1715,-0,8620737,4,1715,0,03625543,4,1715,-0,443122,0,3208846,1,930266E-05,4,1715,-0,9668117,4,1715,0,1893339,4,1715,-0,3464408
0,3214039,-5,874724E-05,4,17825,-0,8499885,4,17825,0,05639734,4,17825,-0,4511787,0,3214039,2,534523E-05,4,17825,-0,9587549,4,17825,0,1651637,4,17825,-0,3464408
0,3219231,-5,857939E-05,4,185,-0,8459601,4,185,0,06445411,4,185,-0,4471503,0,3219231,2,769513E-05,4,185,-0,9506981,4,185,0,1651637,4,185,-0,3504692
0,3224423,-5,387961E-05,4,19175,-0,833875,4,19175,0,07653925,4,19175,-0,4390936,0,3224423,2,668803E-05,4,19175,-0,9426414,4,19175,0,169192,4,19175,-0,3424124
0,3229615,-4,901198E-05,4,1985,-0,8379034,4,1985,0,07653925,4,1985,-0,443122,0,3229615,2,400244E-05,4,1985,-0,9345846,4,1985,0,1812772,4,1985,-0,3424124
0,3234808,-4,213016E-05,4,20525,-0,833875,4,20525,0,06848249,4,20525,-0,4390936,0,3234808,2,366674E-05,4,20525,-0,9345846,4,20525,0,1933623,4,20525,-0,3383841
0,324,-3,038071E-05,4,212,-0,8379034,4,212,0,06042573,4,212,-0,4390936,0,324,2,702373E-05,4,212,-0,9345846,4,212,0,2014191,4,212,-0,3383841
0,3245192,-2,030976E-05,4,21875,-0,8379034,4,21875,0,05236896,4,21875,-0,4471503,0,3245192,2,668803E-05,4,21875,-0,9426414,4,21875,0,1973907,4,21875,-0,3424124
0,3250385,-9,735257E-06,4,2255,-0,8419318,4,2255,0,04834058,4,2255,-0,4471503,0,3250385,2,198825E-05,4,2255,-0,9547265,4,2255,0,2014191,4,2255,-0,3383841
0,3255577,1,292439E-05,4,23225,-0,8499885,4,23225,0,0443122,4,23225,-0,4511787,0,3255577,1,829557E-05,4,23225,-0,9668117,4,23225,0,1933623,4,23225,-0,3424124
0,3260769,4,263371E-05,4,239,-0,8540169,4,239,0,0443122,4,239,-0,4552071,0,3260769,1,695277E-05,4,239,-0,9748684,4,239,0,1893339,4,239,-0,3504692
0,3265962,6,814679E-05,4,24575,-0,8580453,4,24575,0,03625543,4,24575,-0,4552071,0,3265962,1,695277E-05,4,24575,-0,9829252,4,24575,0,1812772,4,24575,-0,3544976
0,3271154,8,744945E-05,4,2525,-0,8580453,4,2525,0,0443122,4,2525,-0,4511787,0,3271154,1,997406E-05,4,2525,-0,9990387,4,2525,0,1812772,4,2525,-0,3625543
0,3276346,0,0001018845,4,25925,-0,8620737,4,25925,0,06042573,4,25925,-0,4471503,0,3276346,2,265965E-05,4,25925,-0,9950103,4,25925,0,1812772,4,25925,-0,3625543
0,3281538,0,000105745,4,266,-0,8701304,4,266,0,06445411,4,266,-0,4552071,0,3281538,1,863126E-05,4,266,-1,011124,4,266,0,1893339,4,266,-0,358526
0,3286731,9,768826E-05,4,27275,-0,8822156,4,27275,0,07251087,4,27275,-0,4632639,0,3286731,7,049668E-06,4,27275,-1,003067,4,27275,0,1933623,4,27275,-0,358526
0,3291923,8,107119E-05,4,2795,-0,8822156,4,2795,0,07653925,4,2795,-0,4713207,0,3291923,-3,356985E-06,4,2795,-1,003067,4,2795,0,2014191,4,2795,-0,3625543
0,3297116,5,52224E-05,4,28625,-0,8781872,4,28625,0,07251087,4,28625,-0,4632639,0,3297116,-7,553216E-06,4,28625,-0,9990387,4,28625,0,2175326,4,28625,-0,3544976
0,3302308,2,131685E-05,4,293,-0,866102,4,293,0,07251087,4,293,-0,4552071,0,3302308,-6,378271E-06,4,293,-0,9990387,4,293,0,2175326,4,293,-0,3665827
0,33075,3,524834E-06,4,29975,-0,8540169,4,29975,0,07653925,4,29975,-0,4471503,0,33075,-3,692683E-06,4,29975,-0,9869535,4,29975,0,221561,4,29975,-0,358526
0,3312692,1,02388E-05,4,3065,-0,8580453,4,3065,0,07251087,4,3065,-0,443122,0,3312692,0,4,3065,-0,9829252,4,3065,0,2175326,4,3065,-0,3706111
0,3317885,1,661708E-05,4,31325,-0,8580453,4,31325,0,08056764,4,31325,-0,4310368,0,3317885,2,517739E-06,4,31325,-0,9788967,4,31325,0,2296178,4,31325,-0,3786679
0,3323077,1,05745E-05,4,32,-0,8620737,4,32,0,08459602,4,32,-0,4310368,0,3323077,2,853437E-06,4,32,-0,97084,4,32,0,2175326,4,32,-0,3786679
0,3328269,3,524834E-06,4,32675,-0,8620737,4,32675,0,09265278,4,32675,-0,4270085,0,3328269,8,392462E-07,4,32675,-0,97084,4,32675,0,2175326,4,32675,-0,3706111
0,3333462,-9,567407E-06,4,3335,-0,8701304,4,3335,0,09265278,4,3335,-0,443122,0,3333462,-2,517739E-06,4,3335,-0,97084,4,3335,0,2135042,4,3335,-0,3746395
0,3338654,-3,440909E-05,4,34025,-0,8620737,4,34025,0,08056764,4,34025,-0,4592355,0,3338654,-5,203327E-06,4,34025,-0,97084,4,34025,0,2135042,4,34025,-0,358526
0,3343846,-5,55581E-05,4,347,-0,8620737,4,347,0,06445411,4,347,-0,4713207,0,3343846,-3,860533E-06,4,347,-0,97084,4,347,0,2014191,4,347,-0,3464408
0,3349038,-5,320821E-05,4,35375,-0,8499885,4,35375,0,05639734,4,35375,-0,4632639,0,3349038,3,356985E-06,4,35375,-0,97084,4,35375,0,1973907,4,35375,-0,3383841
0,3354231,-2,870222E-05,4,3605,-0,8419318,4,3605,0,05639734,4,3605,-0,4632639,0,3354231,1,05745E-05,4,3605,-0,9829252,4,3605,0,1772488,4,3605,-0,3343557
0,3359423,4,867628E-06,4,36725,-0,8379034,4,36725,0,07653925,4,36725,-0,4592355,0,3359423,1,493858E-05,4,36725,-0,9788967,4,36725,0,1611353,4,36725,-0,3303273
0,3364615,3,793393E-05,4,374,-0,8419318,4,374,0,0886244,4,374,-0,4592355,0,3364615,1,493858E-05,4,374,-0,9869535,4,374,0,1490501,4,374,-0,3424124
0,3369808,6,948959E-05,4,38075,-0,8298466,4,38075,0,09668116,4,38075,-0,4552071,0,3369808,1,225299E-05,4,38075,-0,9829252,4,38075,0,1409934,4,38075,-0,3424124
0,3375,0,0001017166,4,3875,-0,833875,4,3875,0,1047379,4,3875,-0,4511787,0,3375,1,174945E-05,4,3875,-0,9788967,4,3875,0,1329366,4,3875,-0,3504692
0,3380192,0,000131426,4,39425,-0,8258182,4,39425,0,1047379,4,39425,-0,443122,0,3380192,1,275654E-05,4,39425,-0,97084,4,39425,0,1329366,4,39425,-0,3424124
0,3385385,0,0001582818,4,401,-0,8379034,4,401,0,08459602,4,401,-0,4471503,0,3385385,1,460288E-05,4,401,-0,9627832,4,401,0,1450217,4,401,-0,3383841
0,3390577,0,0001795987,4,40775,-0,8419318,4,40775,0,08056764,4,40775,-0,443122,0,3390577,1,510643E-05,4,40775,-0,9587549,4,40775,0,1450217,4,40775,-0,3343557
0,3395769,0,0001878233,4,4145,-0,8459601,4,4145,0,06042573,4,4145,-0,4471503,0,3395769,1,560998E-05,4,4145,-0,9627832,4,4145,0,1530785,4,4145,-0,3303273
0,3400961,0,000178088,4,42125,-0,8620737,4,42125,0,04028382,4,42125,-0,4511787,0,3400961,1,426719E-05,4,42125,-0,9788967,4,42125,0,1611353,4,42125,-0,3262989
0,3406154,0,0001515679,4,428,-0,8701304,4,428,0,03625543,4,428,-0,4552071,0,3406154,1,12459E-05,4,428,-0,9909819,4,428,0,1651637,4,428,-0,3343557
0,3411346,0,000115816,4,43475,-0,8701304,4,43475,0,03222705,4,43475,-0,4471503,0,3411346,1,05745E-05,4,43475,-0,9990387,4,43475,0,1772488,4,43475,-0,3383841
0,3416539,8,039979E-05,4,4415,-0,866102,4,4415,0,03222705,4,4415,-0,443122,0,3416539,1,527428E-05,4,4415,-1,007095,4,4415,0,1812772,4,4415,-0,3504692
0,3421731,4,682994E-05,4,44825,-0,866102,4,44825,0,0443122,4,44825,-0,4350652,0,3421731,2,098116E-05,4,44825,-1,011124,4,44825,0,1893339,4,44825,-0,3665827
0,3426923,1,560998E-05,4,455,-0,8701304,4,455,0,05639734,4,455,-0,4310368,0,3426923,2,702373E-05,4,455,-1,011124,4,455,0,2014191,4,455,-0,3826963
0,3432115,-8,560311E-06,4,46175,-0,8741588,4,46175,0,06848249,4,46175,-0,443122,0,3432115,2,987716E-05,4,46175,-0,9990387,4,46175,0,2175326,4,46175,-0,3826963
0,3437308,-2,819867E-05,4,4685,-0,8741588,4,4685,0,08056764,4,4685,-0,4552071,0,3437308,3,071641E-05,4,4685,-0,9950103,4,4685,0,2255894,4,4685,-0,3867247
0,34425,-4,766919E-05,4,47525,-0,8781872,4,47525,0,09265278,4,47525,-0,4672923,0,34425,2,970932E-05,4,47525,-0,97084,4,47525,0,2296178,4,47525,-0,3786679
0,3447692,-6,395057E-05,4,482,-0,8741588,4,482,0,09668116,4,482,-0,4672923,0,3447692,2,937362E-05,4,482,-0,9627832,4,482,0,2255894,4,482,-0,3746395
0,3452885,-7,536431E-05,4,48875,-0,8701304,4,48875,0,09668116,4,48875,-0,4672923,0,3452885,2,819867E-05,4,48875,-0,9547265,4,48875,0,2175326,4,48875,-0,3625543
0,3458077,-8,274968E-05,4,4955,-0,8620737,4,4955,0,09265278,4,4955,-0,4753491,0,3458077,2,21561E-05,4,4955,-0,9587549,4,4955,0,2014191,4,4955,-0,358526
0,3463269,-8,879224E-05,4,50225,-0,8620737,4,50225,0,08056764,4,50225,-0,4713207,0,3463269,1,762417E-05,4,50225,-0,97084,4,50225,0,1772488,4,50225,-0,3383841
0,3468462,-0,000100206,4,509,-0,8580453,4,509,0,07653925,4,509,-0,4672923,0,3468462,1,443503E-05,4,509,-0,9829252,4,509,0,1530785,4,509,-0,3383841
0,3473654,-0,0001161517,4,51575,-0,8379034,4,51575,0,08056764,4,51575,-0,4592355,0,3473654,7,888914E-06,4,51575,-0,9990387,4,51575,0,1450217,4,51575,-0,3222705
0,3478846,-0,0001292439,4,5225,-0,833875,4,5225,0,0886244,4,5225,-0,4471503,0,3478846,-2,349889E-06,4,5225,-1,007095,4,5225,0,1450217,4,5225,-0,3262989
0,3484038,-0,0001273976,4,52925,-0,8379034,4,52925,0,07251087,4,52925,-0,4471503,0,3484038,-6,54612E-06,4,52925,-1,003067,4,52925,0,1450217,4,52925,-0,3222705
0,3489231,-0,0001136339,4,536,-0,8499885,4,536,0,05236896,4,536,-0,443122,0,3489231,-3,189135E-06,4,536,-0,9950103,4,536,0,1490501,4,536,-0,3303273
0,3494423,-9,080644E-05,4,54275,-0,8580453,4,54275,0,03222705,4,54275,-0,4471503,0,3494423,-1,174945E-06,4,54275,-0,9829252,4,54275,0,1450217,4,54275,-0,3343557
0,3499615,-5,001907E-05,4,5495,-0,8620737,4,5495,0,02417029,4,5495,-0,4471503,0,3499615,2,517739E-06,4,5495,-0,9748684,4,5495,0,1490501,4,5495,-0,3262989
0,3504808,6,713969E-07,4,55625,-0,866102,4,55625,0,02819867,4,55625,-0,4511787,0,3504808,6,54612E-06,4,55625,-0,97084,4,55625,0,1409934,4,55625,-0,3262989
0,351,3,961242E-05,4,563,-0,866102,4,563,0,04028382,4,563,-0,4511787,0,351,9,903106E-06,4,563,-0,9668117,4,563,0,1409934,4,563,-0,3182422
0,3515192,5,706874E-05,4,56975,-0,866102,4,56975,0,06445411,4,56975,-0,4511787,0,3515192,1,05745E-05,4,56975,-0,97084,4,56975,0,1329366,4,56975,-0,3101854
0,3520385,6,092927E-05,4,5765,-0,8701304,4,5765,0,07653925,4,5765,-0,4511787,0,3520385,8,392462E-06,4,5765,-0,9788967,4,5765,0,1208515,4,5765,-0,3142138
0,3525577,6,092927E-05,4,58325,-0,8741588,4,58325,0,0886244,4,58325,-0,4471503,0,3525577,5,539025E-06,4,58325,-0,9950103,4,58325,0,1248798,4,58325,-0,3182422
0,3530769,6,630045E-05,4,59,-0,8701304,4,59,0,08056764,4,59,-0,4390936,0,3530769,5,203327E-06,4,59,-1,011124,4,59,0,1289082,4,59,-0,3303273
0,3535962,7,603571E-05,4,59675,-0,8701304,4,59675,0,07653925,4,59675,-0,4310368,0,3535962,3,524834E-06,4,59675,-1,015152,4,59675,0,1530785,4,59675,-0,3303273
0,3541154,8,442817E-05,4,6035,-0,8781872,4,6035,0,06445411,4,6035,-0,4310368,0,3541154,8,392462E-07,4,6035,-1,019181,4,6035,0,1812772,4,6035,-0,3343557
0,3546346,9,198139E-05,4,61025,-0,8741588,4,61025,0,06042573,4,61025,-0,4270085,0,3546346,1,174945E-06,4,61025,-1,023209,4,61025,0,2135042,4,61025,-0,3464408
0,3551539,9,483482E-05,4,617,-0,866102,4,617,0,05236896,4,617,-0,4350652,0,3551539,4,196231E-06,4,617,-1,011124,4,617,0,2336462,4,617,-0,3424124
0,3556731,8,509956E-05,4,62375,-0,866102,4,62375,0,04834058,4,62375,-0,4350652,0,3556731,6,042573E-06,4,62375,-0,9950103,4,62375,0,2537881,4,62375,-0,3464408
0,3561923,6,294347E-05,4,6305,-0,866102,4,6305,0,05236896,4,6305,-0,4229801,0,3561923,3,860533E-06,4,6305,-0,9748684,4,6305,0,2578164,4,6305,-0,3424124
0,3567115,3,826963E-05,4,63725,-0,8620737,4,63725,0,05236896,4,63725,-0,3947814,0,3567115,-1,846342E-06,4,63725,-0,9668117,4,63725,0,2537881,4,63725,-0,3464408
0,3572308,1,846342E-05,4,644,-0,8580453,4,644,0,06042573,4,644,-0,390753,0,3572308,-6,54612E-06,4,644,-0,9547265,4,644,0,2497597,4,644,-0,3504692
0,35775,7,553216E-06,4,65075,-0,8540169,4,65075,0,05639734,4,65075,-0,4068666,0,35775,-7,888914E-06,4,65075,-0,9506981,4,65075,0,2336462,4,65075,-0,3544976
0,3582692,1,007095E-05,4,6575,-0,8499885,4,6575,0,0443122,4,6575,-0,4149233,0,3582692,-6,54612E-06,4,6575,-0,9386129,4,6575,0,2255894,4,6575,-0,3625543
0,3587885,2,232395E-05,4,66425,-0,866102,4,66425,0,03222705,4,66425,-0,4229801,0,3587885,-5,539025E-06,4,66425,-0,9426414,4,66425,0,2175326,4,66425,-0,358526
0,3593077,3,927673E-05,4,671,-0,8822156,4,671,0,02819867,4,671,-0,4310368,0,3593077,-3,860533E-06,4,671,-0,9547265,4,671,0,1933623,4,671,-0,3504692
0,3598269,5,539025E-05,4,67775,-0,8862439,4,67775,0,04028382,4,67775,-0,4270085,0,3598269,-2,18204E-06,4,67775,-0,9668117,4,67775,0,1772488,4,67775,-0,3424124
0,3603462,6,243992E-05,4,6845,-0,8741588,4,6845,0,06445411,4,6845,-0,4390936,0,3603462,5,035478E-07,4,6845,-0,9950103,4,6845,0,1611353,4,6845,-0,3464408
0,3608654,6,344702E-05,4,69125,-0,8540169,4,69125,0,08056764,4,69125,-0,4471503,0,3608654,7,049668E-06,4,69125,-1,007095,4,69125,0,1530785,4,69125,-0,3383841
0,3613846,5,891508E-05,4,698,-0,833875,4,698,0,08056764,4,698,-0,4552071,0,3613846,1,510643E-05,4,698,-1,007095,4,698,0,136965,4,698,-0,3383841
0,3619038,4,263371E-05,4,70475,-0,8097047,4,70475,0,06848249,4,70475,-0,443122,0,3619038,1,930266E-05,4,70475,-0,9909819,4,70475,0,136965,4,70475,-0,3343557
0,3624231,1,628138E-05,4,7115,-0,801648,4,7115,0,06445411,4,7115,-0,4270085,0,3624231,1,879911E-05,4,7115,-0,9668117,4,7115,0,1409934,4,7115,-0,3383841
0,3629423,-7,217517E-06,4,71825,-0,8056763,4,71825,0,08056764,4,71825,-0,3947814,0,3629423,1,963836E-05,4,71825,-0,9386129,4,71825,0,1409934,4,71825,-0,3343557
0,3634616,-2,467384E-05,4,725,-0,8137331,4,725,0,08056764,4,725,-0,4149233,0,3634616,2,450599E-05,4,725,-0,9224994,4,725,0,1530785,4,725,-0,3343557
0,3639808,-4,5655E-05,4,73175,-0,8298466,4,73175,0,06848249,4,73175,-0,4511787,0,3639808,2,786297E-05,4,73175,-0,9305562,4,73175,0,1611353,4,73175,-0,3343557
0,3645,-7,469291E-05,4,7385,-0,8459601,4,7385,0,06848249,4,7385,-0,4753491,0,3645,2,31632E-05,4,7385,-0,9345846,4,7385,0,1772488,4,7385,-0,3222705
0,3650192,-0,0001010452,4,74525,-0,8499885,4,74525,0,06848249,4,74525,-0,4753491,0,3650192,1,460288E-05,4,74525,-0,9466697,4,74525,0,1853056,4,74525,-0,3222705
0,3655385,-0,0001129625,4,752,-0,8419318,4,752,0,07653925,4,752,-0,4592355,0,3655385,9,903106E-06,4,752,-0,97084,4,752,0,1933623,4,752,-0,3262989
0,3660577,-0,0001201801,4,75875,-0,833875,4,75875,0,07653925,4,75875,-0,4511787,0,3660577,6,210422E-06,4,75875,-0,9869535,4,75875,0,1973907,4,75875,-0,3303273
0,3665769,-0,0001310903,4,7655,-0,8258182,4,7655,0,07653925,4,7655,-0,4390936,0,3665769,-1,174945E-06,4,7655,-0,9950103,4,7655,0,2014191,4,7655,-0,3262989
0,3670962,-0,0001408255,4,77225,-0,8258182,4,77225,0,09265278,4,77225,-0,4350652,0,3670962,-8,392462E-06,4,77225,-0,9909819,4,77225,0,1973907,4,77225,-0,3303273
0,3676154,-0,0001445182,4,779,-0,8298466,4,779,0,09668116,4,779,-0,4390936,0,3676154,-1,174945E-05,4,779,-0,9829252,4,779,0,1933623,4,779,-0,3343557
0,3681346,-0,0001381399,4,78575,-0,8419318,4,78575,0,09265278,4,78575,-0,4350652,0,3681346,-1,225299E-05,4,78575,-0,9788967,4,78575,0,2014191,4,78575,-0,3303273
0,3686539,-0,0001226978,4,7925,-0,8459601,4,7925,0,06848249,4,7925,-0,4189517,0,3686539,-1,309224E-05,4,7925,-0,9829252,4,7925,0,2054475,4,7925,-0,3303273
0,3691731,-0,0001025559,4,79925,-0,8419318,4,79925,0,04834058,4,79925,-0,4149233,0,3691731,-1,359579E-05,4,79925,-0,9748684,4,79925,0,2175326,4,79925,-0,3182422
0,3696923,-8,039979E-05,4,806,-0,8459601,4,806,0,02819867,4,806,-0,4229801,0,3696923,-1,242084E-05,4,806,-0,9788967,4,806,0,2175326,4,806,-0,3303273
0,3702115,-5,404746E-05,4,81275,-0,8580453,4,81275,0,02014191,4,81275,-0,4310368,0,3702115,-1,141375E-05,4,81275,-0,97084,4,81275,0,2094758,4,81275,-0,3303273
0,3707308,-2,618448E-05,4,8195,-0,8781872,4,8195,0,02819867,4,8195,-0,4471503,0,3707308,-8,560311E-06,4,8195,-0,9627832,4,8195,0,1893339,4,8195,-0,3424124
0,37125,-4,196231E-06,4,82625,-0,9023575,4,82625,0,0443122,4,82625,-0,4632639,0,37125,-8,224613E-06,4,82625,-0,9748684,4,82625,0,1772488,4,82625,-0,3544976
0,3717692,1,460288E-05,4,833,-0,9144427,4,833,0,05236896,4,833,-0,4793774,0,3717692,-7,721065E-06,4,833,-0,9950103,4,833,0,1812772,4,833,-0,3665827
0,3722885,3,575189E-05,4,83975,-0,9265279,4,83975,0,06445411,4,83975,-0,4793774,0,3722885,-5,539025E-06,4,83975,-1,015152,4,83975,0,1853056,4,83975,-0,3746395
0,3728077,5,690089E-05,4,8465,-0,9224994,4,8465,0,07251087,4,8465,-0,4874342,0,3728077,1,510643E-06,4,8465,-1,027237,4,8465,0,2014191,4,8465,-0,3867247
0,3733269,7,502861E-05,4,85325,-0,9224994,4,85325,0,08056764,4,85325,-0,4793774,0,3733269,1,02388E-05,4,85325,-1,019181,4,85325,0,221561,4,85325,-0,4028382
0,3738461,9,91989E-05,4,86,-0,9184711,4,86,0,08056764,4,86,-0,4834058,0,3738461,1,628138E-05,4,86,-1,011124,4,86,0,2255894,4,86,-0,4229801
0,3743654,0,0001260548,4,86675,-0,9144427,4,86675,0,06848249,4,86675,-0,495491,0,3743654,2,064546E-05,4,86675,-1,003067,4,86675,0,2417029,4,86675,-0,4310368
0,3748846,0,0001455253,4,8735,-0,9063858,4,8735,0,06848249,4,8735,-0,5075761,0,3748846,2,299535E-05,4,8735,-0,9869535,4,8735,0,2417029,4,8735,-0,4390936
0,3754039,0,000152575,4,88025,-0,8862439,4,88025,0,08056764,4,88025,-0,5156329,0,3754039,2,635233E-05,4,88025,-0,97084,4,88025,0,2457313,4,88025,-0,4270085
0,3759231,0,0001488823,4,887,-0,8741588,4,887,0,08056764,4,887,-0,5156329,0,3759231,3,239491E-05,4,887,-0,9506981,4,887,0,2296178,4,887,-0,4189517
0,3764423,0,0001270619,4,89375,-0,8540169,4,89375,0,07653925,4,89375,-0,5116045,0,3764423,3,608759E-05,4,89375,-0,9305562,4,89375,0,221561,4,89375,-0,4028382
0,3769615,8,392462E-05,4,9005,-0,8379034,4,9005,0,07653925,4,9005,-0,5116045,0,3769615,3,004501E-05,4,9005,-0,9265279,4,9005,0,2094758,4,9005,-0,3947814
0,3774808,3,709468E-05,4,90725,-0,8258182,4,90725,0,06848249,4,90725,-0,4914626,0,3774808,2,24918E-05,4,90725,-0,9224994,4,90725,0,1933623,4,90725,-0,3706111
0,378,-5,035478E-07,4,914,-0,8137331,4,914,0,06445411,4,914,-0,4713207,0,378,2,265965E-05,4,914,-0,9265279,4,914,0,1853056,4,914,-0,3625543
0,3785192,-2,887007E-05,4,92075,-0,8137331,4,92075,0,06445411,4,92075,-0,4552071,0,3785192,2,400244E-05,4,92075,-0,9265279,4,92075,0,1772488,4,92075,-0,3424124
0,3790385,-4,448005E-05,4,9275,-0,8258182,4,9275,0,06445411,4,9275,-0,4471503,0,3790385,2,265965E-05,4,9275,-0,9224994,4,9275,0,1611353,4,9275,-0,3222705
0,3795577,-4,129091E-05,4,93425,-0,8379034,4,93425,0,06042573,4,93425,-0,4552071,0,3795577,2,131685E-05,4,93425,-0,9305562,4,93425,0,1530785,4,93425,-0,3182422
0,3800769,-2,836652E-05,4,941,-0,8499885,4,941,0,06042573,4,941,-0,4592355,0,3800769,2,098116E-05,4,941,-0,9386129,4,941,0,136965,4,941,-0,3142138
0,3805962,-1,644923E-05,4,94775,-0,8620737,4,94775,0,06848249,4,94775,-0,443122,0,3805962,1,963836E-05,4,94775,-0,9466697,4,94775,0,1248798,4,94775,-0,3222705
0,3811154,-8,224613E-06,4,9545,-0,8620737,4,9545,0,0886244,4,9545,-0,4270085,0,3811154,1,812772E-05,4,9545,-0,9788967,4,9545,0,1289082,4,9545,-0,3343557
0,3816346,-1,846342E-06,4,96125,-0,8620737,4,96125,0,1047379,4,96125,-0,4108949,0,3816346,1,896696E-05,4,96125,-0,9990387,4,96125,0,136965,4,96125,-0,3464408
0,3821538,4,867628E-06,4,968,-0,8701304,4,968,0,1168231,4,968,-0,4229801,0,3821538,2,467384E-05,4,968,-1,023209,4,968,0,1611353,4,968,-0,3625543
0,3826731,1,02388E-05,4,97475,-0,8580453,4,97475,0,1047379,4,97475,-0,4390936,0,3826731,3,205921E-05,4,97475,-1,043351,4,97475,0,1933623,4,97475,-0,3786679
0,3831923,1,326009E-05,4,9815,-0,8540169,4,9815,0,09265278,4,9815,-0,4471503,0,3831923,3,978027E-05,4,9815,-1,035294,4,9815,0,2296178,4,9815,-0,3867247
0,3837115,1,661708E-05,4,98825,-0,8540169,4,98825,0,06445411,4,98825,-0,4471503,0,3837115,3,978027E-05,4,98825,-1,027237,4,98825,0,2578164,4,98825,-0,390753
0,3842308,1,947051E-05,4,995,-0,8459601,4,995,0,05236896,4,995,-0,443122,0,3842308,3,3402E-05,4,995,-1,019181,4,995,0,2699016,4,995,-0,3826963
0,38475,1,644923E-05,5,00175,-0,833875,5,00175,0,04834058,5,00175,-0,443122,0,38475,2,24918E-05,5,00175,-0,9990387,5,00175,0,2618448,5,00175,-0,3665827
0,3852692,1,040665E-05,5,0085,-0,833875,5,0085,0,0443122,5,0085,-0,443122,0,3852692,7,553216E-06,5,0085,-0,97084,5,0085,0,2457313,5,0085,-0,3504692
0,3857885,6,54612E-06,5,01525,-0,833875,5,01525,0,05236896,5,01525,-0,4390936,0,3857885,-8,224613E-06,5,01525,-0,9426414,5,01525,0,2336462,5,01525,-0,3303273
0,3863077,9,231708E-06,5,022,-0,8419318,5,022,0,06445411,5,022,-0,4471503,0,3863077,-2,1149E-05,5,022,-0,9386129,5,022,0,2014191,5,022,-0,3182422
0,3868269,2,937362E-05,5,02875,-0,8540169,5,02875,0,07251087,5,02875,-0,4552071,0,3868269,-2,937362E-05,5,02875,-0,9506981,5,02875,0,1772488,5,02875,-0,3021286
0,3873461,6,697185E-05,5,0355,-0,8701304,5,0355,0,07653925,5,0355,-0,4592355,0,3873461,-2,819867E-05,5,0355,-0,9829252,5,0355,0,1611353,5,0355,-0,306157
0,3878654,0,0001070878,5,04225,-0,8822156,5,04225,0,08056764,5,04225,-0,4511787,0,3878654,-1,762417E-05,5,04225,-1,011124,5,04225,0,1611353,5,04225,-0,306157
0,3883846,0,000142504,5,049,-0,8862439,5,049,0,08056764,5,049,-0,4471503,0,3883846,-6,71397E-06,5,049,-1,027237,5,049,0,1611353,5,049,-0,3182422
0,3889039,0,0001693599,5,05575,-0,8983291,5,05575,0,08056764,5,05575,-0,4390936,0,3889039,2,517739E-06,5,05575,-1,043351,5,05575,0,1611353,5,05575,-0,3343557
0,3894231,0,0001767452,5,0625,-0,9063858,5,0625,0,06848249,5,0625,-0,4270085,0,3894231,1,426719E-05,5,0625,-1,043351,5,0625,0,1732204,5,0625,-0,3544976
0,3899423,0,0001586175,5,06925,-0,9063858,5,06925,0,07653925,5,06925,-0,4149233,0,3899423,2,400244E-05,5,06925,-1,047379,5,06925,0,1893339,5,06925,-0,3706111
0,3904615,0,0001255512,5,076,-0,8943007,5,076,0,08459602,5,076,-0,4149233,0,3904615,2,601663E-05,5,076,-1,035294,5,076,0,2094758,5,076,-0,3947814
0,3909808,9,785611E-05,5,08275,-0,8902723,5,08275,0,1047379,5,08275,-0,4149233,0,3909808,2,349889E-05,5,08275,-1,027237,5,08275,0,221561,5,08275,-0,390753
0,3915,8,577096E-05,5,0895,-0,8943007,5,0895,0,1007095,5,0895,-0,4068666,0,3915,2,098116E-05,5,0895,-1,015152,5,0895,0,2336462,5,0895,-0,3786679
0,3920192,8,174258E-05,5,09625,-0,8902723,5,09625,0,1047379,5,09625,-0,3988098,0,3920192,1,695277E-05,5,09625,-1,011124,5,09625,0,2578164,5,09625,-0,3625543
0,3925385,6,881819E-05,5,103,-0,8862439,5,103,0,1007095,5,103,-0,3947814,0,3925385,1,05745E-05,5,103,-1,007095,5,103,0,27393,5,103,-0,3544976
0,3930577,4,33051E-05,5,10975,-0,8862439,5,10975,0,1047379,5,10975,-0,3826963,0,3930577,2,517739E-06,5,10975,-1,011124,5,10975,0,2860151,5,10975,-0,3262989
0,3935769,1,493858E-05,5,1165,-0,8781872,5,1165,0,09668116,5,1165,-0,3746395,0,3935769,-3,860533E-06,5,1165,-1,019181,5,1165,0,2819867,5,1165,-0,3101854
0,3940962,-1,09102E-05,5,12325,-0,8781872,5,12325,0,0886244,5,12325,-0,3826963,0,3940962,-7,385367E-06,5,12325,-1,015152,5,12325,0,2860151,5,12325,-0,2940719
0,3946154,-3,541619E-05,5,13,-0,8701304,5,13,0,08459602,5,13,-0,3867247,0,3946154,-8,560311E-06,5,13,-1,015152,5,13,0,2699016,5,13,-0,2819867
0,3951346,-5,387961E-05,5,13675,-0,8620737,5,13675,0,08056764,5,13675,-0,3786679,0,3951346,-8,224613E-06,5,13675,-1,003067,5,13675,0,2618448,5,13675,-0,2819867
0,3956538,-6,092927E-05,5,1435,-0,8620737,5,1435,0,07251087,5,1435,-0,3826963,0,3956538,-8,224613E-06,5,1435,-0,9990387,5,1435,0,2296178,5,1435,-0,27393
0,3961731,-5,824368E-05,5,15025,-0,8580453,5,15025,0,06042573,5,15025,-0,390753,0,3961731,-8,728161E-06,5,15025,-0,9829252,5,15025,0,2014191,5,15025,-0,2658732
0,3966923,-5,421531E-05,5,157,-0,8620737,5,157,0,05236896,5,157,-0,3947814,0,3966923,-9,063859E-06,5,157,-0,97084,5,157,0,1732204,5,157,-0,2779583
0,3972116,-5,253682E-05,5,16375,-0,8620737,5,16375,0,04834058,5,16375,-0,4068666,0,3972116,-8,89601E-06,5,16375,-0,9627832,5,16375,0,1289082,5,16375,-0,27393
0,3977308,-4,985122E-05,5,1705,-0,8620737,5,1705,0,05236896,5,1705,-0,4149233,0,3977308,-7,888914E-06,5,1705,-0,9668117,5,1705,0,1007095,5,1705,-0,27393
0,39825,-3,843748E-05,5,17725,-0,8580453,5,17725,0,06445411,5,17725,-0,4189517,0,39825,-4,531929E-06,5,17725,-0,9668117,5,17725,0,08056764,5,17725,-0,2819867
0,3987692,-2,500954E-05,5,184,-0,8540169,5,184,0,06445411,5,184,-0,4229801,0,3987692,0,5,184,-0,9748684,5,184,0,07251087,5,184,-0,2900435
0,3992885,-1,896696E-05,5,19075,-0,8419318,5,19075,0,06445411,5,19075,-0,4189517,0,3992885,4,867628E-06,5,19075,-0,9788967,5,19075,0,08459602,5,19075,-0,2981002
0,3998077,-1,762417E-05,5,1975,-0,8217899,5,1975,0,06445411,5,1975,-0,4189517,0,3998077,9,231708E-06,5,1975,-0,9788967,5,1975,0,1087663,5,1975,-0,3182422
0,4003269,-3,205921E-05,5,20425,-0,8177615,5,20425,0,06042573,5,20425,-0,4108949,0,4003269,1,15816E-05,5,20425,-0,9668117,5,20425,0,136965,5,20425,-0,3303273
0,4008462,-5,723659E-05,5,211,-0,8177615,5,211,0,05639734,5,211,-0,3988098,0,4008462,1,594568E-05,5,211,-0,9466697,5,211,0,1732204,5,211,-0,3424124
0,4013654,-7,821775E-05,5,21775,-0,8298466,5,21775,0,06848249,5,21775,-0,3947814,0,4013654,2,366674E-05,5,21775,-0,9305562,5,21775,0,1973907,5,21775,-0,3424124
0,4018846,-8,610666E-05,5,2245,-0,8419318,5,2245,0,07251087,5,2245,-0,4028382,0,4018846,3,27306E-05,5,2245,-0,9345846,5,2245,0,2175326,5,2245,-0,3504692
0,4024039,-8,123904E-05,5,23125,-0,8419318,5,23125,0,06848249,5,23125,-0,3988098,0,4024039,4,095522E-05,5,23125,-0,9305562,5,23125,0,2417029,5,23125,-0,3383841
0,4029231,-7,066453E-05,5,238,-0,8499885,5,238,0,06445411,5,238,-0,3947814,0,4029231,4,280156E-05,5,238,-0,9426414,5,238,0,2497597,5,238,-0,3303273
0,4034423,-6,630045E-05,5,24475,-0,866102,5,24475,0,06042573,5,24475,-0,390753,0,4034423,3,675898E-05,5,24475,-0,9547265,5,24475,0,2658732,5,24475,-0,3142138
0,4039615,-7,335011E-05,5,2515,-0,866102,5,2515,0,05236896,5,2515,-0,3947814,0,4039615,2,735943E-05,5,2515,-0,9748684,5,2515,0,2779583,5,2515,-0,3142138
0,4044808,-8,845655E-05,5,25825,-0,8620737,5,25825,0,06445411,5,25825,-0,3947814,0,4044808,1,812772E-05,5,25825,-0,9869535,5,25825,0,2779583,5,25825,-0,3101854
0,405,-0,0001050736,5,265,-0,8540169,5,265,0,05639734,5,265,-0,3988098,0,405,6,378271E-06,5,265,-1,003067,5,265,0,2779583,5,265,-0,3222705
0,4055192,-0,0001096056,5,27175,-0,8540169,5,27175,0,05236896,5,27175,-0,3988098,0,4055192,-5,539025E-06,5,27175,-1,015152,5,27175,0,27393,5,27175,-0,3343557
0,4060385,-8,82887E-05,5,2785,-0,8379034,5,2785,0,04834058,5,2785,-0,4068666,0,4060385,-1,342794E-05,5,2785,-1,015152,5,2785,0,27393,5,2785,-0,3504692
