Label: R BICEPS BRACHII: EMG 1 Sampling frequency: 1,925926e+003 Number of points: 58682 start: 0,000000e+000 Unit: Volts Domain Unit: s
Label: R BICEPS BRACHII: Acc 1.X Sampling frequency: 1,481481e+002 Number of points: 4514 start: 0,000000e+000 Unit: g Domain Unit: s
Label: R BICEPS BRACHII: Acc 1.Y Sampling frequency: 1,481481e+002 Number of points: 4514 start: 0,000000e+000 Unit: g Domain Unit: s
Label: R BICEPS BRACHII: Acc 1.Z Sampling frequency: 1,481481e+002 Number of points: 4514 start: 0,000000e+000 Unit: g Domain Unit: s
Label: R TRICEPS BRACHII: EMG 2 Sampling frequency: 1,925926e+003 Number of points: 58682 start: 0,000000e+000 Unit: Volts Domain Unit: s
Label: R TRICEPS BRACHII: Acc 2.X Sampling frequency: 1,481481e+002 Number of points: 4514 start: 0,000000e+000 Unit: g Domain Unit: s
Label: R TRICEPS BRACHII: Acc 2.Y Sampling frequency: 1,481481e+002 Number of points: 4514 start: 0,000000e+000 Unit: g Domain Unit: s
Label: R TRICEPS BRACHII: Acc 2.Z Sampling frequency: 1,481481e+002 Number of points: 4514 start: 0,000000e+000 Unit: g Domain Unit: s
Start Trigger Method: None
Stop Trigger Method: None
 
X[s],"R BICEPS BRACHII: EMG 1",X[s],"R BICEPS BRACHII: Acc 1.X",X[s],"R BICEPS BRACHII: Acc 1.Y",X[s],"R BICEPS BRACHII: Acc 1.Z",X[s],"R TRICEPS BRACHII: EMG 2",X[s],"R TRICEPS BRACHII: Acc 2.X",X[s],"R TRICEPS BRACHII: Acc 2.Y",X[s],"R TRICEPS BRACHII: Acc 2.Z"
0.000000,0,0.000000,0,0.000000,0,0.000000,0,0.000000,0,0.000000,0,0.000000,0,0.000000,0
0,0005192308,0,0,00675,0,0,00675,0,0,00675,0,0,0005192308,0,0,00675,0,0,00675,0,0,00675,0
0,001038462,0,0,0135,0,0,0135,0,0,0135,0,0,001038462,0,0,0135,0,0,0135,0,0,0135,0
0,001557692,0,0,02025,0,0,02025,0,0,02025,0,0,001557692,0,0,02025,0,0,02025,0,0,02025,0
0,002076923,0,0,027,0,0,027,0,0,027,0,0,002076923,0,0,027,0,0,027,0,0,027,0
0,002596154,0,0,03375,0,0,03375,0,0,03375,0,0,002596154,0,0,03375,0,0,03375,0,0,03375,0
0,003115385,0,0,0405,-0,8499885,0,0405,0,02014191,0,0405,-0,2054475,0,003115385,0,0,0405,-0,9144427,0,0405,0,3665827,0,0405,-0,1248798
0,003634615,0,0,04725,-0,8499885,0,04725,0,02417029,0,04725,-0,2175326,0,003634615,0,0,04725,-0,9144427,0,04725,0,3665827,0,04725,-0,1289082
0,004153846,0,0,054,-0,8459601,0,054,0,03222705,0,054,-0,2135042,0,004153846,0,0,054,-0,9184711,0,054,0,3706111,0,054,-0,1329366
0,004673077,0,0,06075,-0,8540169,0,06075,0,03625543,0,06075,-0,2175326,0,004673077,0,0,06075,-0,9224994,0,06075,0,3706111,0,06075,-0,1329366
0,005192308,0,0,0675,-0,8499885,0,0675,0,03625543,0,0675,-0,2175326,0,005192308,0,0,0675,-0,9265279,0,0675,0,3706111,0,0675,-0,1289082
0,005711539,0,0,07425,-0,8580453,0,07425,0,04028382,0,07425,-0,221561,0,005711539,0,0,07425,-0,9265279,0,07425,0,3665827,0,07425,-0,1248798
0,006230769,0,0,081,-0,8580453,0,081,0,03625543,0,081,-0,221561,0,006230769,0,0,081,-0,9265279,0,081,0,3625543,0,081,-0,1289082
0,00675,0,0,08775,-0,8620737,0,08775,0,03625543,0,08775,-0,221561,0,00675,0,0,08775,-0,9224994,0,08775,0,3665827,0,08775,-0,1248798
0,007269231,0,0,0945,-0,8540169,0,0945,0,03222705,0,0945,-0,2296178,0,007269231,0,0,0945,-0,9224994,0,0945,0,3665827,0,0945,-0,1289082
0,007788462,0,0,10125,-0,8540169,0,10125,0,03222705,0,10125,-0,2255894,0,007788462,0,0,10125,-0,9224994,0,10125,0,3625543,0,10125,-0,1248798
0,008307693,0,0,108,-0,8540169,0,108,0,03222705,0,108,-0,2296178,0,008307693,0,0,108,-0,9265279,0,108,0,3544976,0,108,-0,1329366
0,008826924,0,0,11475,-0,8540169,0,11475,0,02819867,0,11475,-0,221561,0,008826924,0,0,11475,-0,9265279,0,11475,0,3544976,0,11475,-0,1329366
0,009346154,0,0,1215,-0,8580453,0,1215,0,02819867,0,1215,-0,221561,0,009346154,0,0,1215,-0,9184711,0,1215,0,3544976,0,1215,-0,136965
0,009865385,0,0,12825,-0,8580453,0,12825,0,03222705,0,12825,-0,2255894,0,009865385,0,0,12825,-0,9184711,0,12825,0,3544976,0,12825,-0,1409934
0,01038462,0,0,135,-0,8580453,0,135,0,03222705,0,135,-0,2255894,0,01038462,0,0,135,-0,9184711,0,135,0,358526,0,135,-0,1329366
0,01090385,0,0,14175,-0,8499885,0,14175,0,03625543,0,14175,-0,2175326,0,01090385,0,0,14175,-0,9144427,0,14175,0,358526,0,14175,-0,1329366
0,01142308,0,0,1485,-0,8540169,0,1485,0,03222705,0,1485,-0,2255894,0,01142308,0,0,1485,-0,9144427,0,1485,0,3625543,0,1485,-0,1329366
0,01194231,0,0,15525,-0,8459601,0,15525,0,03625543,0,15525,-0,2175326,0,01194231,0,0,15525,-0,9104142,0,15525,0,3625543,0,15525,-0,1329366
0,01246154,0,0,162,-0,8459601,0,162,0,03222705,0,162,-0,221561,0,01246154,0,0,162,-0,9104142,0,162,0,3665827,0,162,-0,136965
0,01298077,0,0,16875,-0,8419318,0,16875,0,02819867,0,16875,-0,221561,0,01298077,0,0,16875,-0,9104142,0,16875,0,3665827,0,16875,-0,136965
0,0135,0,0,1755,-0,8499885,0,1755,0,02819867,0,1755,-0,221561,0,0135,0,0,1755,-0,9063858,0,1755,0,3665827,0,1755,-0,136965
0,01401923,0,0,18225,-0,8459601,0,18225,0,02014191,0,18225,-0,221561,0,01401923,0,0,18225,-0,9063858,0,18225,0,3706111,0,18225,-0,1329366
0,01453846,0,0,189,-0,8499885,0,189,0,01611353,0,189,-0,2175326,0,01453846,0,0,189,-0,9144427,0,189,0,3625543,0,189,-0,136965
0,01505769,0,0,19575,-0,8459601,0,19575,0,02014191,0,19575,-0,2175326,0,01505769,0,0,19575,-0,9104142,0,19575,0,3706111,0,19575,-0,1289082
0,01557692,0,0,2025,-0,8419318,0,2025,0,02417029,0,2025,-0,2135042,0,01557692,0,0,2025,-0,9184711,0,2025,0,3625543,0,2025,-0,1289082
0,01609615,0,0,20925,-0,8459601,0,20925,0,02819867,0,20925,-0,2094758,0,01609615,0,0,20925,-0,9144427,0,20925,0,3625543,0,20925,-0,136965
0,01661539,0,0,216,-0,8499885,0,216,0,03222705,0,216,-0,2135042,0,01661539,0,0,216,-0,9184711,0,216,0,358526,0,216,-0,1329366
0,01713462,0,0,22275,-0,8499885,0,22275,0,03625543,0,22275,-0,2135042,0,01713462,0,0,22275,-0,9144427,0,22275,0,3625543,0,22275,-0,1289082
0,01765385,0,0,2295,-0,8499885,0,2295,0,04028382,0,2295,-0,2135042,0,01765385,0,0,2295,-0,9144427,0,2295,0,3625543,0,2295,-0,1289082
0,01817308,0,0,23625,-0,8499885,0,23625,0,03625543,0,23625,-0,2135042,0,01817308,0,0,23625,-0,9184711,0,23625,0,3625543,0,23625,-0,1208515
0,01869231,0,0,243,-0,8499885,0,243,0,03625543,0,243,-0,2135042,0,01869231,0,0,243,-0,9224994,0,243,0,3625543,0,243,-0,1208515
0,01921154,0,0,24975,-0,8540169,0,24975,0,03625543,0,24975,-0,2135042,0,01921154,0,0,24975,-0,9184711,0,24975,0,3625543,0,24975,-0,1208515
0,01973077,0,0,2565,-0,8499885,0,2565,0,03222705,0,2565,-0,2175326,0,01973077,0,0,2565,-0,9184711,0,2565,0,3625543,0,2565,-0,1208515
0,02025,0,0,26325,-0,8540169,0,26325,0,02014191,0,26325,-0,221561,0,02025,0,0,26325,-0,9144427,0,26325,0,3665827,0,26325,-0,1208515
0,02076923,0,0,27,-0,8540169,0,27,0,02014191,0,27,-0,221561,0,02076923,0,0,27,-0,9224994,0,27,0,3665827,0,27,-0,1208515
0,02128846,0,0,27675,-0,8499885,0,27675,0,02417029,0,27675,-0,2135042,0,02128846,0,0,27675,-0,9184711,0,27675,0,3665827,0,27675,-0,1248798
0,02180769,0,0,2835,-0,8459601,0,2835,0,02819867,0,2835,-0,221561,0,02180769,0,0,2835,-0,9104142,0,2835,0,3625543,0,2835,-0,1329366
0,02232692,0,0,29025,-0,8419318,0,29025,0,02819867,0,29025,-0,221561,0,02232692,0,0,29025,-0,9104142,0,29025,0,3544976,0,29025,-0,1450217
0,02284615,0,0,297,-0,8499885,0,297,0,03222705,0,297,-0,2296178,0,02284615,0,0,297,-0,9104142,0,297,0,3504692,0,297,-0,1409934
0,02336538,0,0,30375,-0,8459601,0,30375,0,02819867,0,30375,-0,2255894,0,02336538,0,0,30375,-0,9144427,0,30375,0,3464408,0,30375,-0,1409934
0,02388461,0,0,3105,-0,8459601,0,3105,0,02819867,0,3105,-0,2376745,0,02388461,0,0,3105,-0,9184711,0,3105,0,3464408,0,3105,-0,1329366
0,02440385,0,0,31725,-0,8379034,0,31725,0,03222705,0,31725,-0,2376745,0,02440385,0,0,31725,-0,9104142,0,31725,0,3544976,0,31725,-0,1409934
0,02492308,0,0,324,-0,833875,0,324,0,04028382,0,324,-0,2336462,0,02492308,0,0,324,-0,9104142,0,324,0,3464408,0,324,-0,136965
0,02544231,0,0,33075,-0,833875,0,33075,0,0443122,0,33075,-0,2296178,0,02544231,0,0,33075,-0,9063858,0,33075,0,3504692,0,33075,-0,136965
0,02596154,0,0,3375,-0,8379034,0,3375,0,0443122,0,3375,-0,2336462,0,02596154,0,0,3375,-0,9104142,0,3375,0,3464408,0,3375,-0,1409934
0,02648077,0,0,34425,-0,8419318,0,34425,0,05236896,0,34425,-0,2296178,0,02648077,0,0,34425,-0,9144427,0,34425,0,3464408,0,34425,-0,1409934
0,027,0,0,351,-0,8499885,0,351,0,04834058,0,351,-0,2417029,0,027,0,0,351,-0,9184711,0,351,0,3544976,0,351,-0,1490501
0,02751923,0,0,35775,-0,866102,0,35775,0,04028382,0,35775,-0,2376745,0,02751923,0,0,35775,-0,9144427,0,35775,0,358526,0,35775,-0,1450217
0,02803846,0,0,3645,-0,8701304,0,3645,0,03625543,0,3645,-0,2376745,0,02803846,0,0,3645,-0,9265279,0,3645,0,3665827,0,3645,-0,136965
0,02855769,0,0,37125,-0,8701304,0,37125,0,03222705,0,37125,-0,2255894,0,02855769,0,0,37125,-0,9345846,0,37125,0,3706111,0,37125,-0,1289082
0,02907692,0,0,378,-0,8620737,0,378,0,03222705,0,378,-0,2175326,0,02907692,0,0,378,-0,9386129,0,378,0,3746395,0,378,-0,1168231
0,02959615,0,0,38475,-0,8620737,0,38475,0,03222705,0,38475,-0,2094758,0,02959615,0,0,38475,-0,9386129,0,38475,0,3706111,0,38475,-0,1168231
0,03011538,0,0,3915,-0,8701304,0,3915,0,02819867,0,3915,-0,1973907,0,03011538,0,0,3915,-0,9466697,0,3915,0,3746395,0,3915,-0,1087663
0,03063462,0,0,39825,-0,8741588,0,39825,0,02417029,0,39825,-0,1933623,0,03063462,0,0,39825,-0,9386129,0,39825,0,3665827,0,39825,-0,1127947
0,03115385,0,0,405,-0,866102,0,405,0,02417029,0,405,-0,1933623,0,03115385,0,0,405,-0,9345846,0,405,0,3625543,0,405,-0,1127947
0,03167308,0,0,41175,-0,8580453,0,41175,0,03222705,0,41175,-0,1973907,0,03167308,0,0,41175,-0,9305562,0,41175,0,358526,0,41175,-0,1127947
0,03219231,0,0,4185,-0,8540169,0,4185,0,03625543,0,4185,-0,2094758,0,03219231,0,0,4185,-0,9265279,0,4185,0,3464408,0,4185,-0,1087663
0,03271154,0,0,42525,-0,8580453,0,42525,0,03625543,0,42525,-0,2175326,0,03271154,0,0,42525,-0,9224994,0,42525,0,3464408,0,42525,-0,1127947
0,03323077,0,0,432,-0,8499885,0,432,0,03625543,0,432,-0,2296178,0,03323077,0,0,432,-0,9184711,0,432,0,3383841,0,432,-0,1127947
0,03375,0,0,43875,-0,8499885,0,43875,0,03625543,0,43875,-0,2336462,0,03375,0,0,43875,-0,9104142,0,43875,0,3303273,0,43875,-0,1087663
0,03426923,0,0,4455,-0,8499885,0,4455,0,0443122,0,4455,-0,2417029,0,03426923,0,0,4455,-0,9144427,0,4455,0,3262989,0,4455,-0,1168231
0,03478846,0,0,45225,-0,8499885,0,45225,0,0443122,0,45225,-0,2417029,0,03478846,0,0,45225,-0,9184711,0,45225,0,3303273,0,45225,-0,1208515
0,03530769,0,0,459,-0,8459601,0,459,0,0443122,0,459,-0,2376745,0,03530769,0,0,459,-0,9224994,0,459,0,3343557,0,459,-0,1248798
0,03582693,0,0,46575,-0,8419318,0,46575,0,04834058,0,46575,-0,2376745,0,03582693,0,0,46575,-0,9184711,0,46575,0,3383841,0,46575,-0,1289082
0,03634615,0,0,4725,-0,833875,0,4725,0,04834058,0,4725,-0,2336462,0,03634615,0,0,4725,-0,9265279,0,4725,0,3504692,0,4725,-0,1329366
0,03686538,0,0,47925,-0,8419318,0,47925,0,04834058,0,47925,-0,2296178,0,03686538,0,0,47925,-0,9305562,0,47925,0,3504692,0,47925,-0,1409934
0,03738461,0,0,486,-0,8419318,0,486,0,05236896,0,486,-0,2255894,0,03738461,0,0,486,-0,9265279,0,486,0,358526,0,486,-0,1450217
0,03790385,0,0,49275,-0,8499885,0,49275,0,04834058,0,49275,-0,2255894,0,03790385,0,0,49275,-0,9224994,0,49275,0,358526,0,49275,-0,1450217
0,03842308,0,0,4995,-0,8540169,0,4995,0,03625543,0,4995,-0,2296178,0,03842308,0,0,4995,-0,9224994,0,4995,0,3665827,0,4995,-0,136965
0,03894231,0,0,50625,-0,8540169,0,50625,0,04028382,0,50625,-0,2255894,0,03894231,0,0,50625,-0,9184711,0,50625,0,3706111,0,50625,-0,1329366
0,03946154,0,0,513,-0,8540169,0,513,0,04028382,0,513,-0,2135042,0,03946154,0,0,513,-0,9224994,0,513,0,3746395,0,513,-0,1329366
0,03998077,0,0,51975,-0,8580453,0,51975,0,04028382,0,51975,-0,2135042,0,03998077,0,0,51975,-0,9184711,0,51975,0,3746395,0,51975,-0,1208515
0,0405,9,903106E-06,0,5265,-0,8540169,0,5265,0,03625543,0,5265,-0,2175326,0,0405,8,224613E-06,0,5265,-0,9144427,0,5265,0,3826963,0,5265,-0,1248798
0,04101923,1,225299E-05,0,53325,-0,8540169,0,53325,0,04028382,0,53325,-0,2135042,0,04101923,9,231708E-06,0,53325,-0,9144427,0,53325,0,3826963,0,53325,-0,1248798
0,04153846,1,326009E-05,0,54,-0,8499885,0,54,0,04028382,0,54,-0,2135042,0,04153846,7,217517E-06,0,54,-0,9144427,0,54,0,3786679,0,54,-0,1168231
0,04205769,1,258869E-05,0,54675,-0,8459601,0,54675,0,03625543,0,54675,-0,2135042,0,04205769,7,049668E-06,0,54675,-0,9144427,0,54675,0,3706111,0,54675,-0,1208515
0,04257692,1,174945E-05,0,5535,-0,8419318,0,5535,0,03222705,0,5535,-0,2135042,0,04257692,7,049668E-06,0,5535,-0,9184711,0,5535,0,3625543,0,5535,-0,1208515
0,04309615,1,19173E-05,0,56025,-0,8419318,0,56025,0,03222705,0,56025,-0,2135042,0,04309615,7,217517E-06,0,56025,-0,9104142,0,56025,0,3504692,0,56025,-0,1248798
0,04361539,1,05745E-05,0,567,-0,8459601,0,567,0,03222705,0,567,-0,2255894,0,04361539,6,210422E-06,0,567,-0,9104142,0,567,0,3464408,0,567,-0,1289082
0,04413462,8,560311E-06,0,57375,-0,8459601,0,57375,0,03222705,0,57375,-0,221561,0,04413462,4,028382E-06,0,57375,-0,9144427,0,57375,0,3383841,0,57375,-0,136965
0,04465385,9,063859E-06,0,5805,-0,8459601,0,5805,0,03222705,0,5805,-0,2336462,0,04465385,2,349889E-06,0,5805,-0,9063858,0,5805,0,3383841,0,5805,-0,1409934
0,04517308,1,141375E-05,0,58725,-0,8419318,0,58725,0,03222705,0,58725,-0,2336462,0,04517308,3,189135E-06,0,58725,-0,9104142,0,58725,0,3343557,0,58725,-0,1409934
0,04569231,1,493858E-05,0,594,-0,8419318,0,594,0,03625543,0,594,-0,2417029,0,04569231,7,217517E-06,0,594,-0,9184711,0,594,0,3383841,0,594,-0,1409934
0,04621154,1,527428E-05,0,60075,-0,8379034,0,60075,0,03222705,0,60075,-0,2417029,0,04621154,9,231708E-06,0,60075,-0,9224994,0,60075,0,3424124,0,60075,-0,1450217
0,04673077,1,15816E-05,0,6075,-0,8419318,0,6075,0,03222705,0,6075,-0,2376745,0,04673077,9,567407E-06,0,6075,-0,9144427,0,6075,0,3464408,0,6075,-0,1450217
0,04725,9,735257E-06,0,61425,-0,833875,0,61425,0,03625543,0,61425,-0,2296178,0,04725,8,89601E-06,0,61425,-0,9104142,0,61425,0,3504692,0,61425,-0,1450217
0,04776923,1,09102E-05,0,621,-0,8419318,0,621,0,03625543,0,621,-0,2336462,0,04776923,8,560311E-06,0,621,-0,9104142,0,621,0,358526,0,621,-0,1409934
0,04828846,1,242084E-05,0,62775,-0,8379034,0,62775,0,04028382,0,62775,-0,2296178,0,04828846,1,02388E-05,0,62775,-0,9104142,0,62775,0,3625543,0,62775,-0,1329366
0,04880769,1,107805E-05,0,6345,-0,8499885,0,6345,0,03222705,0,6345,-0,2255894,0,04880769,1,05745E-05,0,6345,-0,9144427,0,6345,0,3706111,0,6345,-0,1329366
0,04932692,9,399557E-06,0,64125,-0,8499885,0,64125,0,03222705,0,64125,-0,221561,0,04932692,9,735257E-06,0,64125,-0,9063858,0,64125,0,3746395,0,64125,-0,1329366
0,04984615,9,903106E-06,0,648,-0,8499885,0,648,0,02819867,0,648,-0,221561,0,04984615,8,89601E-06,0,648,-0,9063858,0,648,0,3786679,0,648,-0,136965
0,05036538,9,231708E-06,0,65475,-0,8499885,0,65475,0,02819867,0,65475,-0,2175326,0,05036538,9,231708E-06,0,65475,-0,9104142,0,65475,0,3746395,0,65475,-0,1329366
0,05088462,7,217517E-06,0,6615,-0,8580453,0,6615,0,02417029,0,6615,-0,221561,0,05088462,8,89601E-06,0,6615,-0,9144427,0,6615,0,3786679,0,6615,-0,1409934
0,05140385,6,881819E-06,0,66825,-0,8580453,0,66825,0,02417029,0,66825,-0,2175326,0,05140385,6,54612E-06,0,66825,-0,9144427,0,66825,0,3786679,0,66825,-0,1409934
0,05192308,8,224613E-06,0,675,-0,8620737,0,675,0,02417029,0,675,-0,221561,0,05192308,5,203327E-06,0,675,-0,9184711,0,675,0,3746395,0,675,-0,136965
0,05244231,8,224613E-06,0,68175,-0,8620737,0,68175,0,03222705,0,68175,-0,221561,0,05244231,7,888914E-06,0,68175,-0,9224994,0,68175,0,3706111,0,68175,-0,136965
0,05296154,6,210422E-06,0,6885,-0,8701304,0,6885,0,03625543,0,6885,-0,221561,0,05296154,1,05745E-05,0,6885,-0,9305562,0,6885,0,3665827,0,6885,-0,1409934
0,05348077,5,706875E-06,0,69525,-0,8701304,0,69525,0,03625543,0,69525,-0,2175326,0,05348077,1,225299E-05,0,69525,-0,9305562,0,69525,0,358526,0,69525,-0,1289082
0,054,6,54612E-06,0,702,-0,866102,0,702,0,0443122,0,702,-0,221561,0,054,1,426719E-05,0,702,-0,9386129,0,702,0,358526,0,702,-0,1329366
0,05451923,6,54612E-06,0,70875,-0,8701304,0,70875,0,05236896,0,70875,-0,2175326,0,05451923,1,577783E-05,0,70875,-0,9426414,0,70875,0,3625543,0,70875,-0,1289082
0,05503846,7,553216E-06,0,7155,-0,8620737,0,7155,0,05236896,0,7155,-0,2094758,0,05503846,1,594568E-05,0,7155,-0,9426414,0,7155,0,358526,0,7155,-0,1248798
0,05555769,1,12459E-05,0,72225,-0,8580453,0,72225,0,05639734,0,72225,-0,2094758,0,05555769,1,443503E-05,0,72225,-0,9345846,0,72225,0,3544976,0,72225,-0,1168231
0,05607693,1,393149E-05,0,729,-0,8499885,0,729,0,04834058,0,729,-0,2175326,0,05607693,1,342794E-05,0,729,-0,9345846,0,729,0,3504692,0,729,-0,1168231
0,05659616,1,258869E-05,0,73575,-0,8540169,0,73575,0,04834058,0,73575,-0,221561,0,05659616,1,460288E-05,0,73575,-0,9305562,0,73575,0,3544976,0,73575,-0,1127947
0,05711538,1,05745E-05,0,7425,-0,8580453,0,7425,0,04028382,0,7425,-0,2255894,0,05711538,1,712062E-05,0,7425,-0,9305562,0,7425,0,3504692,0,7425,-0,1087663
0,05763461,1,174945E-05,0,74925,-0,8540169,0,74925,0,04028382,0,74925,-0,221561,0,05763461,1,460288E-05,0,74925,-0,9224994,0,74925,0,3464408,0,74925,-0,1087663
0,05815385,1,258869E-05,0,756,-0,8580453,0,756,0,03625543,0,756,-0,2255894,0,05815385,1,05745E-05,0,756,-0,9224994,0,756,0,3504692,0,756,-0,1087663
0,05867308,1,275654E-05,0,76275,-0,8540169,0,76275,0,04028382,0,76275,-0,2175326,0,05867308,9,231708E-06,0,76275,-0,9224994,0,76275,0,3464408,0,76275,-0,1127947
0,05919231,1,326009E-05,0,7695,-0,8459601,0,7695,0,04028382,0,7695,-0,2135042,0,05919231,8,560311E-06,0,7695,-0,9184711,0,7695,0,3464408,0,7695,-0,1168231
0,05971154,1,376364E-05,0,77625,-0,8379034,0,77625,0,04028382,0,77625,-0,2094758,0,05971154,9,735257E-06,0,77625,-0,9144427,0,77625,0,3464408,0,77625,-0,1329366
0,06023077,1,326009E-05,0,783,-0,8419318,0,783,0,03625543,0,783,-0,221561,0,06023077,1,19173E-05,0,783,-0,9144427,0,783,0,3424124,0,783,-0,1289082
0,06075,1,359579E-05,0,78975,-0,8459601,0,78975,0,03222705,0,78975,-0,2255894,0,06075,1,292439E-05,0,78975,-0,9144427,0,78975,0,3504692,0,78975,-0,136965
0,06126923,1,292439E-05,0,7965,-0,8379034,0,7965,0,02417029,0,7965,-0,2296178,0,06126923,1,292439E-05,0,7965,-0,9104142,0,7965,0,3504692,0,7965,-0,1450217
0,06178846,1,309224E-05,0,80325,-0,8419318,0,80325,0,02819867,0,80325,-0,2296178,0,06178846,1,258869E-05,0,80325,-0,9104142,0,80325,0,3504692,0,80325,-0,1450217
0,06230769,1,258869E-05,0,81,-0,833875,0,81,0,03625543,0,81,-0,2296178,0,06230769,1,12459E-05,0,81,-0,9184711,0,81,0,3544976,0,81,-0,1409934
0,06282692,1,02388E-05,0,81675,-0,833875,0,81675,0,0443122,0,81675,-0,2255894,0,06282692,1,05745E-05,0,81675,-0,9063858,0,81675,0,358526,0,81675,-0,1450217
0,06334615,7,888914E-06,0,8235,-0,833875,0,8235,0,05236896,0,8235,-0,2255894,0,06334615,1,12459E-05,0,8235,-0,9063858,0,8235,0,3544976,0,8235,-0,1409934
0,06386539,6,881819E-06,0,83025,-0,833875,0,83025,0,06042573,0,83025,-0,221561,0,06386539,1,12459E-05,0,83025,-0,9063858,0,83025,0,3504692,0,83025,-0,1409934
0,06438462,7,888914E-06,0,837,-0,8379034,0,837,0,05236896,0,837,-0,2255894,0,06438462,1,15816E-05,0,837,-0,9104142,0,837,0,3544976,0,837,-0,1329366
0,06490385,9,903106E-06,0,84375,-0,8459601,0,84375,0,0443122,0,84375,-0,2296178,0,06490385,1,174945E-05,0,84375,-0,9104142,0,84375,0,358526,0,84375,-0,1409934
0,06542308,9,567407E-06,0,8505,-0,8540169,0,8505,0,03625543,0,8505,-0,2336462,0,06542308,1,225299E-05,0,8505,-0,9184711,0,8505,0,3625543,0,8505,-0,1329366
0,06594231,7,049668E-06,0,85725,-0,8540169,0,85725,0,03222705,0,85725,-0,2296178,0,06594231,1,359579E-05,0,85725,-0,9144427,0,85725,0,3786679,0,85725,-0,1289082
0,06646154,7,721065E-06,0,864,-0,8499885,0,864,0,02819867,0,864,-0,2296178,0,06646154,1,359579E-05,0,864,-0,9184711,0,864,0,3867247,0,864,-0,1289082
0,06698077,9,567407E-06,0,87075,-0,8580453,0,87075,0,02014191,0,87075,-0,221561,0,06698077,1,12459E-05,0,87075,-0,9265279,0,87075,0,3746395,0,87075,-0,1248798
0,0675,1,05745E-05,0,8775,-0,8620737,0,8775,0,02014191,0,8775,-0,2135042,0,0675,7,888914E-06,0,8775,-0,9265279,0,8775,0,3746395,0,8775,-0,1208515
0,06801923,1,174945E-05,0,88425,-0,8620737,0,88425,0,02014191,0,88425,-0,2094758,0,06801923,5,539025E-06,0,88425,-0,9224994,0,88425,0,3665827,0,88425,-0,1248798
0,06853846,1,309224E-05,0,891,-0,8620737,0,891,0,02819867,0,891,-0,2054475,0,06853846,5,035477E-06,0,891,-0,9265279,0,891,0,358526,0,891,-0,1248798
0,0690577,1,359579E-05,0,89775,-0,8580453,0,89775,0,03625543,0,89775,-0,2135042,0,0690577,3,860533E-06,0,89775,-0,9265279,0,89775,0,3504692,0,89775,-0,1329366
0,06957693,1,326009E-05,0,9045,-0,8540169,0,9045,0,04028382,0,9045,-0,221561,0,06957693,2,517739E-06,0,9045,-0,9265279,0,9045,0,3424124,0,9045,-0,1329366
0,07009616,1,326009E-05,0,91125,-0,8580453,0,91125,0,04834058,0,91125,-0,2255894,0,07009616,1,846342E-06,0,91125,-0,9224994,0,91125,0,3383841,0,91125,-0,1329366
0,07061539,1,460288E-05,0,918,-0,8540169,0,918,0,04028382,0,918,-0,2336462,0,07061539,3,189135E-06,0,918,-0,9265279,0,918,0,3383841,0,918,-0,136965
0,07113462,1,527428E-05,0,92475,-0,8580453,0,92475,0,04834058,0,92475,-0,2417029,0,07113462,4,36408E-06,0,92475,-0,9184711,0,92475,0,3343557,0,92475,-0,1289082
0,07165385,1,309224E-05,0,9315,-0,8499885,0,9315,0,0443122,0,9315,-0,2417029,0,07165385,5,203327E-06,0,9315,-0,9104142,0,9315,0,3303273,0,9315,-0,136965
0,07217308,9,903106E-06,0,93825,-0,8459601,0,93825,0,04028382,0,93825,-0,2457313,0,07217308,5,706875E-06,0,93825,-0,9104142,0,93825,0,3343557,0,93825,-0,1329366
0,0726923,8,560311E-06,0,945,-0,8459601,0,945,0,04028382,0,945,-0,2417029,0,0726923,5,706875E-06,0,945,-0,9144427,0,945,0,3383841,0,945,-0,136965
0,07321154,9,567407E-06,0,95175,-0,8459601,0,95175,0,04028382,0,95175,-0,2417029,0,07321154,5,874724E-06,0,95175,-0,9104142,0,95175,0,3383841,0,95175,-0,136965
0,07373077,1,05745E-05,0,9585,-0,8499885,0,9585,0,03625543,0,9585,-0,2336462,0,07373077,8,224613E-06,0,9585,-0,9144427,0,9585,0,3424124,0,9585,-0,136965
0,07425,9,903106E-06,0,96525,-0,8419318,0,96525,0,03222705,0,96525,-0,2255894,0,07425,9,567407E-06,0,96525,-0,9104142,0,96525,0,3504692,0,96525,-0,136965
0,07476923,1,141375E-05,0,972,-0,8459601,0,972,0,03625543,0,972,-0,2296178,0,07476923,1,208515E-05,0,972,-0,9104142,0,972,0,3544976,0,972,-0,136965
0,07528846,1,174945E-05,0,97875,-0,8499885,0,97875,0,03222705,0,97875,-0,2255894,0,07528846,1,443503E-05,0,97875,-0,9144427,0,97875,0,3625543,0,97875,-0,1409934
0,07580769,1,12459E-05,0,9855,-0,8540169,0,9855,0,03625543,0,9855,-0,221561,0,07580769,1,19173E-05,0,9855,-0,9144427,0,9855,0,3625543,0,9855,-0,1409934
0,07632692,1,426719E-05,0,99225,-0,8580453,0,99225,0,03222705,0,99225,-0,221561,0,07632692,4,36408E-06,0,99225,-0,9224994,0,99225,0,3746395,0,99225,-0,136965
0,07684615,1,795987E-05,0,999,-0,8580453,0,999,0,03625543,0,999,-0,221561,0,07684615,1,846342E-06,0,999,-0,9184711,0,999,0,3706111,0,999,-0,1409934
0,07736538,1,846342E-05,1,00575,-0,8499885,1,00575,0,03222705,1,00575,-0,221561,0,07736538,4,196231E-06,1,00575,-0,9104142,1,00575,0,3746395,1,00575,-0,136965
0,07788461,1,661708E-05,1,0125,-0,8540169,1,0125,0,03222705,1,0125,-0,2255894,0,07788461,6,378271E-06,1,0125,-0,9184711,1,0125,0,3665827,1,0125,-0,136965
0,07840385,1,460288E-05,1,01925,-0,8540169,1,01925,0,02819867,1,01925,-0,221561,0,07840385,9,231708E-06,1,01925,-0,9104142,1,01925,0,3665827,1,01925,-0,1329366
0,07892308,1,326009E-05,1,026,-0,8499885,1,026,0,03222705,1,026,-0,221561,0,07892308,8,89601E-06,1,026,-0,9144427,1,026,0,358526,1,026,-0,1329366
0,07944231,1,409934E-05,1,03275,-0,8459601,1,03275,0,03222705,1,03275,-0,221561,0,07944231,5,874724E-06,1,03275,-0,9104142,1,03275,0,358526,1,03275,-0,1329366
0,07996154,1,644923E-05,1,0395,-0,8459601,1,0395,0,03222705,1,0395,-0,2255894,0,07996154,5,203327E-06,1,0395,-0,9224994,1,0395,0,3464408,1,0395,-0,1409934
0,08048077,1,661708E-05,1,04625,-0,8459601,1,04625,0,03625543,1,04625,-0,2296178,0,08048077,4,196231E-06,1,04625,-0,9184711,1,04625,0,3424124,1,04625,-0,136965
0,081,1,443503E-05,1,053,-0,8419318,1,053,0,03222705,1,053,-0,2296178,0,081,3,021286E-06,1,053,-0,9224994,1,053,0,3383841,1,053,-0,1450217
0,08151923,1,258869E-05,1,05975,-0,8459601,1,05975,0,03625543,1,05975,-0,2255894,0,08151923,4,196231E-06,1,05975,-0,9224994,1,05975,0,3424124,1,05975,-0,1329366
0,08203846,1,309224E-05,1,0665,-0,8459601,1,0665,0,03222705,1,0665,-0,2255894,0,08203846,3,860533E-06,1,0665,-0,9184711,1,0665,0,3504692,1,0665,-0,1450217
0,08255769,1,225299E-05,1,07325,-0,8499885,1,07325,0,03625543,1,07325,-0,2255894,0,08255769,4,196231E-06,1,07325,-0,9184711,1,07325,0,3544976,1,07325,-0,1329366
0,08307692,1,02388E-05,1,08,-0,8499885,1,08,0,03625543,1,08,-0,2255894,0,08307692,5,035477E-06,1,08,-0,9265279,1,08,0,3504692,1,08,-0,136965
0,08359616,8,224613E-06,1,08675,-0,8499885,1,08675,0,03222705,1,08675,-0,2255894,0,08359616,4,867628E-06,1,08675,-0,9184711,1,08675,0,3625543,1,08675,-0,136965
0,08411539,7,888914E-06,1,0935,-0,8540169,1,0935,0,03222705,1,0935,-0,2255894,0,08411539,5,706875E-06,1,0935,-0,9144427,1,0935,0,3665827,1,0935,-0,1329366
0,08463462,9,063859E-06,1,10025,-0,8499885,1,10025,0,03625543,1,10025,-0,2255894,0,08463462,6,210422E-06,1,10025,-0,9184711,1,10025,0,3665827,1,10025,-0,1289082
0,08515385,9,567407E-06,1,107,-0,8540169,1,107,0,03625543,1,107,-0,2255894,0,08515385,5,539025E-06,1,107,-0,9224994,1,107,0,3665827,1,107,-0,1329366
0,08567308,7,888914E-06,1,11375,-0,8580453,1,11375,0,04028382,1,11375,-0,221561,0,08567308,5,203327E-06,1,11375,-0,9224994,1,11375,0,3625543,1,11375,-0,1248798
0,08619231,6,54612E-06,1,1205,-0,8540169,1,1205,0,04028382,1,1205,-0,2255894,0,08619231,5,203327E-06,1,1205,-0,9184711,1,1205,0,358526,1,1205,-0,1329366
0,08671154,8,560311E-06,1,12725,-0,8620737,1,12725,0,03625543,1,12725,-0,221561,0,08671154,5,539025E-06,1,12725,-0,9184711,1,12725,0,3625543,1,12725,-0,1329366
0,08723077,8,560311E-06,1,134,-0,8540169,1,134,0,03222705,1,134,-0,2255894,0,08723077,6,881819E-06,1,134,-0,9144427,1,134,0,3544976,1,134,-0,136965
0,08775,5,035477E-06,1,14075,-0,8540169,1,14075,0,03625543,1,14075,-0,2336462,0,08775,9,231708E-06,1,14075,-0,9144427,1,14075,0,358526,1,14075,-0,1409934
0,08826923,3,860533E-06,1,1475,-0,8459601,1,1475,0,03625543,1,1475,-0,2336462,0,08826923,1,258869E-05,1,1475,-0,9144427,1,1475,0,358526,1,1475,-0,136965
0,08878846,5,203327E-06,1,15425,-0,8499885,1,15425,0,03222705,1,15425,-0,2255894,0,08878846,1,594568E-05,1,15425,-0,9144427,1,15425,0,358526,1,15425,-0,1329366
0,0893077,7,888914E-06,1,161,-0,8459601,1,161,0,03222705,1,161,-0,2336462,0,0893077,1,460288E-05,1,161,-0,9184711,1,161,0,3504692,1,161,-0,136965
0,08982693,1,02388E-05,1,16775,-0,8499885,1,16775,0,03222705,1,16775,-0,2296178,0,08982693,9,735257E-06,1,16775,-0,9224994,1,16775,0,3625543,1,16775,-0,1329366
0,09034616,9,735257E-06,1,1745,-0,8540169,1,1745,0,03222705,1,1745,-0,2255894,0,09034616,6,881819E-06,1,1745,-0,9224994,1,1745,0,358526,1,1745,-0,1409934
0,09086539,7,049668E-06,1,18125,-0,8580453,1,18125,0,02819867,1,18125,-0,2255894,0,09086539,5,203327E-06,1,18125,-0,9224994,1,18125,0,3504692,1,18125,-0,136965
0,09138462,6,378271E-06,1,188,-0,8540169,1,188,0,02819867,1,188,-0,2175326,0,09138462,3,692683E-06,1,188,-0,9184711,1,188,0,358526,1,188,-0,136965
0,09190385,7,888914E-06,1,19475,-0,8499885,1,19475,0,02819867,1,19475,-0,2175326,0,09190385,6,378271E-06,1,19475,-0,9184711,1,19475,0,358526,1,19475,-0,1409934
0,09242308,1,040665E-05,1,2015,-0,8540169,1,2015,0,02417029,1,2015,-0,2255894,0,09242308,7,553216E-06,1,2015,-0,9224994,1,2015,0,3625543,1,2015,-0,136965
0,09294231,1,05745E-05,1,20825,-0,8499885,1,20825,0,02417029,1,20825,-0,2175326,0,09294231,5,203327E-06,1,20825,-0,9144427,1,20825,0,3625543,1,20825,-0,1409934
0,09346154,1,05745E-05,1,215,-0,8540169,1,215,0,02819867,1,215,-0,2175326,0,09346154,5,874724E-06,1,215,-0,9184711,1,215,0,3706111,1,215,-0,1409934
0,09398077,1,15816E-05,1,22175,-0,8580453,1,22175,0,03222705,1,22175,-0,221561,0,09398077,7,553216E-06,1,22175,-0,9184711,1,22175,0,3665827,1,22175,-0,136965
0,0945,1,326009E-05,1,2285,-0,8580453,1,2285,0,02819867,1,2285,-0,2255894,0,0945,9,231708E-06,1,2285,-0,9144427,1,2285,0,3665827,1,2285,-0,136965
0,09501923,1,292439E-05,1,23525,-0,8540169,1,23525,0,02819867,1,23525,-0,2255894,0,09501923,1,141375E-05,1,23525,-0,9184711,1,23525,0,358526,1,23525,-0,136965
0,09553846,1,15816E-05,1,242,-0,8499885,1,242,0,03222705,1,242,-0,2336462,0,09553846,1,174945E-05,1,242,-0,9184711,1,242,0,3544976,1,242,-0,1329366
0,09605769,1,02388E-05,1,24875,-0,8620737,1,24875,0,03222705,1,24875,-0,2376745,0,09605769,1,12459E-05,1,24875,-0,9184711,1,24875,0,3544976,1,24875,-0,1329366
0,09657692,9,903106E-06,1,2555,-0,8540169,1,2555,0,03625543,1,2555,-0,2336462,0,09657692,1,174945E-05,1,2555,-0,9184711,1,2555,0,3504692,1,2555,-0,136965
0,09709615,1,19173E-05,1,26225,-0,8459601,1,26225,0,0443122,1,26225,-0,221561,0,09709615,1,174945E-05,1,26225,-0,9144427,1,26225,0,3544976,1,26225,-0,1329366
0,09761538,1,393149E-05,1,269,-0,8459601,1,269,0,04834058,1,269,-0,2255894,0,09761538,1,05745E-05,1,269,-0,9144427,1,269,0,3383841,1,269,-0,136965
0,09813461,1,527428E-05,1,27575,-0,8459601,1,27575,0,05236896,1,27575,-0,221561,0,09813461,1,15816E-05,1,27575,-0,9144427,1,27575,0,3424124,1,27575,-0,1289082
0,09865385,1,493858E-05,1,2825,-0,8580453,1,2825,0,04834058,1,2825,-0,2255894,0,09865385,1,141375E-05,1,2825,-0,9224994,1,2825,0,3424124,1,2825,-0,1329366
0,09917308,1,19173E-05,1,28925,-0,8540169,1,28925,0,0443122,1,28925,-0,2336462,0,09917308,1,040665E-05,1,28925,-0,9184711,1,28925,0,3504692,1,28925,-0,1248798
0,09969231,9,567407E-06,1,296,-0,8540169,1,296,0,04028382,1,296,-0,2296178,0,09969231,1,107805E-05,1,296,-0,9224994,1,296,0,3544976,1,296,-0,1329366
0,1002115,1,141375E-05,1,30275,-0,8499885,1,30275,0,03222705,1,30275,-0,2296178,0,1002115,1,09102E-05,1,30275,-0,9265279,1,30275,0,358526,1,30275,-0,1289082
0,1007308,1,426719E-05,1,3095,-0,8499885,1,3095,0,03625543,1,3095,-0,2255894,0,1007308,1,05745E-05,1,3095,-0,9265279,1,3095,0,3504692,1,3095,-0,1289082
0,10125,1,443503E-05,1,31625,-0,8379034,1,31625,0,04028382,1,31625,-0,221561,0,10125,1,292439E-05,1,31625,-0,9144427,1,31625,0,3544976,1,31625,-0,1248798
0,1017692,1,275654E-05,1,323,-0,8459601,1,323,0,04028382,1,323,-0,2175326,0,1017692,1,510643E-05,1,323,-0,9184711,1,323,0,3504692,1,323,-0,1208515
0,1022885,1,174945E-05,1,32975,-0,8580453,1,32975,0,0443122,1,32975,-0,2175326,0,1022885,1,661708E-05,1,32975,-0,9184711,1,32975,0,3504692,1,32975,-0,1289082
0,1028077,1,292439E-05,1,3365,-0,8620737,1,3365,0,03625543,1,3365,-0,221561,0,1028077,1,762417E-05,1,3365,-0,9224994,1,3365,0,3424124,1,3365,-0,1409934
0,1033269,1,527428E-05,1,34325,-0,8620737,1,34325,0,03222705,1,34325,-0,221561,0,1033269,1,594568E-05,1,34325,-0,9224994,1,34325,0,3544976,1,34325,-0,1409934
0,1038462,1,544213E-05,1,35,-0,8620737,1,35,0,02819867,1,35,-0,2175326,0,1038462,1,359579E-05,1,35,-0,9224994,1,35,0,3504692,1,35,-0,136965
0,1043654,1,359579E-05,1,35675,-0,8580453,1,35675,0,03222705,1,35675,-0,221561,0,1043654,1,05745E-05,1,35675,-0,9305562,1,35675,0,3625543,1,35675,-0,136965
0,1048846,1,258869E-05,1,3635,-0,8620737,1,3635,0,04028382,1,3635,-0,221561,0,1048846,1,007095E-05,1,3635,-0,9305562,1,3635,0,3706111,1,3635,-0,1248798
0,1054038,1,15816E-05,1,37025,-0,8540169,1,37025,0,04028382,1,37025,-0,2135042,0,1054038,1,15816E-05,1,37025,-0,9345846,1,37025,0,3706111,1,37025,-0,1289082
0,1059231,1,292439E-05,1,377,-0,8580453,1,377,0,03625543,1,377,-0,2054475,0,1059231,9,903106E-06,1,377,-0,9386129,1,377,0,3746395,1,377,-0,1208515
0,1064423,1,443503E-05,1,38375,-0,8580453,1,38375,0,0443122,1,38375,-0,2135042,0,1064423,6,881819E-06,1,38375,-0,9305562,1,38375,0,3746395,1,38375,-0,1208515
0,1069615,1,359579E-05,1,3905,-0,8620737,1,3905,0,04028382,1,3905,-0,2175326,0,1069615,6,210422E-06,1,3905,-0,9224994,1,3905,0,3706111,1,3905,-0,1248798
0,1074808,1,19173E-05,1,39725,-0,8499885,1,39725,0,04028382,1,39725,-0,2135042,0,1074808,7,553216E-06,1,39725,-0,9224994,1,39725,0,3665827,1,39725,-0,1248798
0,108,1,19173E-05,1,404,-0,8459601,1,404,0,04834058,1,404,-0,221561,0,108,9,231708E-06,1,404,-0,9184711,1,404,0,358526,1,404,-0,1248798
0,1085192,1,292439E-05,1,41075,-0,8499885,1,41075,0,04834058,1,41075,-0,221561,0,1085192,8,728161E-06,1,41075,-0,9104142,1,41075,0,3504692,1,41075,-0,1248798
0,1090385,1,292439E-05,1,4175,-0,8419318,1,4175,0,0443122,1,4175,-0,2296178,0,1090385,5,706875E-06,1,4175,-0,9063858,1,4175,0,3424124,1,4175,-0,1248798
0,1095577,1,05745E-05,1,42425,-0,8379034,1,42425,0,04028382,1,42425,-0,2296178,0,1095577,5,203327E-06,1,42425,-0,9023575,1,42425,0,3424124,1,42425,-0,1248798
0,1100769,9,231708E-06,1,431,-0,8419318,1,431,0,04028382,1,431,-0,2336462,0,1100769,6,54612E-06,1,431,-0,9023575,1,431,0,3383841,1,431,-0,1168231
0,1105962,1,107805E-05,1,43775,-0,8419318,1,43775,0,03625543,1,43775,-0,2376745,0,1105962,7,721065E-06,1,43775,-0,9023575,1,43775,0,3262989,1,43775,-0,1248798
0,1111154,1,443503E-05,1,4445,-0,833875,1,4445,0,03625543,1,4445,-0,2417029,0,1111154,6,54612E-06,1,4445,-0,9063858,1,4445,0,3262989,1,4445,-0,136965
0,1116346,1,393149E-05,1,45125,-0,8379034,1,45125,0,03625543,1,45125,-0,2417029,0,1116346,7,049668E-06,1,45125,-0,9104142,1,45125,0,3303273,1,45125,-0,1490501
0,1121539,1,05745E-05,1,458,-0,833875,1,458,0,03222705,1,458,-0,2336462,0,1121539,8,392462E-06,1,458,-0,9224994,1,458,0,3343557,1,458,-0,1571069
0,1126731,8,560311E-06,1,46475,-0,8419318,1,46475,0,03222705,1,46475,-0,2376745,0,1126731,1,02388E-05,1,46475,-0,9144427,1,46475,0,3424124,1,46475,-0,1530785
0,1131923,9,231708E-06,1,4715,-0,8499885,1,4715,0,02819867,1,4715,-0,2376745,0,1131923,9,399557E-06,1,4715,-0,9224994,1,4715,0,3504692,1,4715,-0,1490501
0,1137115,1,05745E-05,1,47825,-0,8540169,1,47825,0,02819867,1,47825,-0,2336462,0,1137115,3,860533E-06,1,47825,-0,9305562,1,47825,0,3544976,1,47825,-0,1490501
0,1142308,1,19173E-05,1,485,-0,8580453,1,485,0,02819867,1,485,-0,2255894,0,1142308,2,517739E-06,1,485,-0,9265279,1,485,0,3544976,1,485,-0,1490501
0,11475,1,258869E-05,1,49175,-0,8580453,1,49175,0,03222705,1,49175,-0,2336462,0,11475,5,874724E-06,1,49175,-0,9224994,1,49175,0,3625543,1,49175,-0,1450217
0,1152692,1,141375E-05,1,4985,-0,8540169,1,4985,0,03625543,1,4985,-0,2296178,0,1152692,8,89601E-06,1,4985,-0,9224994,1,4985,0,3625543,1,4985,-0,136965
0,1157885,1,05745E-05,1,50525,-0,8580453,1,50525,0,03625543,1,50525,-0,2255894,0,1157885,9,567407E-06,1,50525,-0,9184711,1,50525,0,3625543,1,50525,-0,1289082
0,1163077,1,02388E-05,1,512,-0,8580453,1,512,0,03625543,1,512,-0,2255894,0,1163077,7,888914E-06,1,512,-0,9224994,1,512,0,3625543,1,512,-0,1248798
0,1168269,9,735257E-06,1,51875,-0,8580453,1,51875,0,03625543,1,51875,-0,2296178,0,1168269,4,36408E-06,1,51875,-0,9184711,1,51875,0,3665827,1,51875,-0,1248798
0,1173462,1,12459E-05,1,5255,-0,8540169,1,5255,0,04028382,1,5255,-0,2175326,0,1173462,1,678492E-06,1,5255,-0,9184711,1,5255,0,3665827,1,5255,-0,1248798
0,1178654,1,19173E-05,1,53225,-0,8580453,1,53225,0,03625543,1,53225,-0,221561,0,1178654,2,349889E-06,1,53225,-0,9224994,1,53225,0,3665827,1,53225,-0,1289082
0,1183846,1,15816E-05,1,539,-0,8580453,1,539,0,03625543,1,539,-0,221561,0,1183846,5,539025E-06,1,539,-0,9265279,1,539,0,3625543,1,539,-0,1289082
0,1189038,1,02388E-05,1,54575,-0,8540169,1,54575,0,03625543,1,54575,-0,221561,0,1189038,7,553216E-06,1,54575,-0,9265279,1,54575,0,358526,1,54575,-0,136965
0,1194231,1,05745E-05,1,5525,-0,8540169,1,5525,0,04028382,1,5525,-0,2336462,0,1194231,7,553216E-06,1,5525,-0,9265279,1,5525,0,358526,1,5525,-0,136965
0,1199423,1,15816E-05,1,55925,-0,8540169,1,55925,0,03625543,1,55925,-0,2336462,0,1199423,6,881819E-06,1,55925,-0,9265279,1,55925,0,3544976,1,55925,-0,1289082
0,1204615,1,05745E-05,1,566,-0,8540169,1,566,0,03625543,1,566,-0,2336462,0,1204615,4,867628E-06,1,566,-0,9224994,1,566,0,3464408,1,566,-0,1329366
0,1209808,9,231708E-06,1,57275,-0,8499885,1,57275,0,04028382,1,57275,-0,2336462,0,1209808,3,692683E-06,1,57275,-0,9224994,1,57275,0,3504692,1,57275,-0,136965
0,1215,1,107805E-05,1,5795,-0,8459601,1,5795,0,03625543,1,5795,-0,2417029,0,1215,3,860533E-06,1,5795,-0,9224994,1,5795,0,3383841,1,5795,-0,1450217
0,1220192,1,02388E-05,1,58625,-0,8499885,1,58625,0,03222705,1,58625,-0,2376745,0,1220192,6,210422E-06,1,58625,-0,9144427,1,58625,0,3424124,1,58625,-0,1409934
0,1225385,9,063859E-06,1,593,-0,8459601,1,593,0,03222705,1,593,-0,2376745,0,1225385,8,392462E-06,1,593,-0,9184711,1,593,0,3383841,1,593,-0,1490501
0,1230577,6,54612E-06,1,59975,-0,8499885,1,59975,0,02819867,1,59975,-0,2296178,0,1230577,1,09102E-05,1,59975,-0,9144427,1,59975,0,3504692,1,59975,-0,1409934
0,1235769,5,874724E-06,1,6065,-0,8540169,1,6065,0,02417029,1,6065,-0,2336462,0,1235769,1,292439E-05,1,6065,-0,9184711,1,6065,0,3424124,1,6065,-0,1490501
0,1240962,8,728161E-06,1,61325,-0,8580453,1,61325,0,02417029,1,61325,-0,2296178,0,1240962,1,258869E-05,1,61325,-0,9144427,1,61325,0,3544976,1,61325,-0,1409934
0,1246154,9,903106E-06,1,62,-0,8540169,1,62,0,02819867,1,62,-0,2296178,0,1246154,1,007095E-05,1,62,-0,9144427,1,62,0,358526,1,62,-0,1409934
0,1251346,9,231708E-06,1,62675,-0,8499885,1,62675,0,02417029,1,62675,-0,2255894,0,1251346,7,888914E-06,1,62675,-0,9104142,1,62675,0,3625543,1,62675,-0,136965
0,1256538,9,903106E-06,1,6335,-0,8499885,1,6335,0,02819867,1,6335,-0,221561,0,1256538,7,049668E-06,1,6335,-0,9104142,1,6335,0,3665827,1,6335,-0,1409934
0,1261731,1,05745E-05,1,64025,-0,8499885,1,64025,0,02819867,1,64025,-0,221561,0,1261731,5,706875E-06,1,64025,-0,9104142,1,64025,0,3665827,1,64025,-0,1409934
0,1266923,1,19173E-05,1,647,-0,8419318,1,647,0,02819867,1,647,-0,2255894,0,1266923,5,706875E-06,1,647,-0,9144427,1,647,0,358526,1,647,-0,136965
0,1272115,1,393149E-05,1,65375,-0,8419318,1,65375,0,02417029,1,65375,-0,221561,0,1272115,4,867628E-06,1,65375,-0,9063858,1,65375,0,3625543,1,65375,-0,1409934
0,1277308,1,359579E-05,1,6605,-0,8419318,1,6605,0,02819867,1,6605,-0,2336462,0,1277308,5,203327E-06,1,6605,-0,9144427,1,6605,0,3665827,1,6605,-0,1450217
0,12825,1,12459E-05,1,66725,-0,8379034,1,66725,0,02819867,1,66725,-0,2336462,0,12825,5,874724E-06,1,66725,-0,9104142,1,66725,0,3625543,1,66725,-0,1409934
0,1287692,1,02388E-05,1,674,-0,8499885,1,674,0,03222705,1,674,-0,2336462,0,1287692,5,035477E-06,1,674,-0,9063858,1,674,0,3504692,1,674,-0,136965
0,1292885,9,903106E-06,1,68075,-0,8459601,1,68075,0,03222705,1,68075,-0,2376745,0,1292885,5,035477E-06,1,68075,-0,9144427,1,68075,0,3544976,1,68075,-0,1329366
0,1298077,9,399557E-06,1,6875,-0,8499885,1,6875,0,03222705,1,6875,-0,2336462,0,1298077,5,706875E-06,1,6875,-0,9144427,1,6875,0,3544976,1,6875,-0,1409934
0,1303269,9,903106E-06,1,69425,-0,8499885,1,69425,0,02819867,1,69425,-0,2296178,0,1303269,4,867628E-06,1,69425,-0,9144427,1,69425,0,3504692,1,69425,-0,136965
0,1308462,9,231708E-06,1,701,-0,8499885,1,701,0,03222705,1,701,-0,2296178,0,1308462,2,517739E-06,1,701,-0,9184711,1,701,0,3424124,1,701,-0,1409934
0,1313654,9,567407E-06,1,70775,-0,8540169,1,70775,0,02819867,1,70775,-0,2255894,0,1313654,4,531929E-06,1,70775,-0,9184711,1,70775,0,3464408,1,70775,-0,1329366
0,1318846,1,258869E-05,1,7145,-0,8580453,1,7145,0,03222705,1,7145,-0,2336462,0,1318846,9,231708E-06,1,7145,-0,9265279,1,7145,0,3464408,1,7145,-0,1409934
0,1324039,1,326009E-05,1,72125,-0,8580453,1,72125,0,03625543,1,72125,-0,2296178,0,1324039,1,326009E-05,1,72125,-0,9224994,1,72125,0,3504692,1,72125,-0,136965
0,1329231,1,15816E-05,1,728,-0,8580453,1,728,0,03625543,1,728,-0,2336462,0,1329231,1,426719E-05,1,728,-0,9265279,1,728,0,3424124,1,728,-0,136965
0,1334423,1,225299E-05,1,73475,-0,8620737,1,73475,0,03625543,1,73475,-0,2296178,0,1334423,1,309224E-05,1,73475,-0,9265279,1,73475,0,3464408,1,73475,-0,1289082
0,1339615,1,242084E-05,1,7415,-0,8620737,1,7415,0,03222705,1,7415,-0,2296178,0,1339615,1,040665E-05,1,7415,-0,9265279,1,7415,0,3504692,1,7415,-0,136965
0,1344808,1,09102E-05,1,74825,-0,8580453,1,74825,0,03625543,1,74825,-0,2255894,0,1344808,8,224613E-06,1,74825,-0,9265279,1,74825,0,3544976,1,74825,-0,1409934
0,135,1,007095E-05,1,755,-0,8540169,1,755,0,03625543,1,755,-0,2296178,0,135,6,54612E-06,1,755,-0,9265279,1,755,0,3625543,1,755,-0,136965
0,1355192,9,735257E-06,1,76175,-0,8499885,1,76175,0,03222705,1,76175,-0,2175326,0,1355192,8,560311E-06,1,76175,-0,9184711,1,76175,0,3665827,1,76175,-0,1329366
0,1360385,9,735257E-06,1,7685,-0,8459601,1,7685,0,04028382,1,7685,-0,2135042,0,1360385,1,02388E-05,1,7685,-0,9144427,1,7685,0,358526,1,7685,-0,1289082
0,1365577,7,888914E-06,1,77525,-0,8459601,1,77525,0,03625543,1,77525,-0,2135042,0,1365577,1,19173E-05,1,77525,-0,9104142,1,77525,0,3544976,1,77525,-0,1289082
0,1370769,8,224613E-06,1,782,-0,8499885,1,782,0,03222705,1,782,-0,221561,0,1370769,1,326009E-05,1,782,-0,9104142,1,782,0,358526,1,782,-0,1329366
0,1375962,1,12459E-05,1,78875,-0,8580453,1,78875,0,02417029,1,78875,-0,221561,0,1375962,1,292439E-05,1,78875,-0,9184711,1,78875,0,358526,1,78875,-0,1289082
0,1381154,1,292439E-05,1,7955,-0,8620737,1,7955,0,01611353,1,7955,-0,2336462,0,1381154,1,258869E-05,1,7955,-0,9144427,1,7955,0,3544976,1,7955,-0,1289082
0,1386346,1,258869E-05,1,80225,-0,8580453,1,80225,0,01611353,1,80225,-0,2376745,0,1386346,1,19173E-05,1,80225,-0,9224994,1,80225,0,358526,1,80225,-0,1248798
0,1391539,1,15816E-05,1,809,-0,8499885,1,809,0,02417029,1,809,-0,2336462,0,1391539,1,174945E-05,1,809,-0,9224994,1,809,0,3464408,1,809,-0,1329366
0,1396731,1,02388E-05,1,81575,-0,8499885,1,81575,0,03625543,1,81575,-0,2296178,0,1396731,1,19173E-05,1,81575,-0,9104142,1,81575,0,3504692,1,81575,-0,1329366
0,1401923,9,231708E-06,1,8225,-0,8379034,1,8225,0,0443122,1,8225,-0,2255894,0,1401923,1,174945E-05,1,8225,-0,9144427,1,8225,0,3343557,1,8225,-0,1329366
0,1407115,1,12459E-05,1,82925,-0,8459601,1,82925,0,04834058,1,82925,-0,2255894,0,1407115,1,393149E-05,1,82925,-0,9184711,1,82925,0,3383841,1,82925,-0,1450217
0,1412308,1,258869E-05,1,836,-0,8459601,1,836,0,04834058,1,836,-0,2336462,0,1412308,1,376364E-05,1,836,-0,9265279,1,836,0,3343557,1,836,-0,1490501
0,14175,1,15816E-05,1,84275,-0,8540169,1,84275,0,05236896,1,84275,-0,2376745,0,14175,1,02388E-05,1,84275,-0,9305562,1,84275,0,3424124,1,84275,-0,1490501
0,1422692,8,392462E-06,1,8495,-0,8620737,1,8495,0,05236896,1,8495,-0,2457313,0,1422692,7,217517E-06,1,8495,-0,9265279,1,8495,0,3464408,1,8495,-0,1450217
0,1427885,6,042573E-06,1,85625,-0,8620737,1,85625,0,05236896,1,85625,-0,2457313,0,1427885,9,231708E-06,1,85625,-0,9305562,1,85625,0,358526,1,85625,-0,1409934
0,1433077,6,210422E-06,1,863,-0,8620737,1,863,0,0443122,1,863,-0,2336462,0,1433077,1,12459E-05,1,863,-0,9345846,1,863,0,3665827,1,863,-0,136965
0,1438269,8,224613E-06,1,86975,-0,8701304,1,86975,0,0443122,1,86975,-0,2255894,0,1438269,1,225299E-05,1,86975,-0,9386129,1,86975,0,3746395,1,86975,-0,1208515
0,1443462,8,89601E-06,1,8765,-0,8620737,1,8765,0,03625543,1,8765,-0,2175326,0,1443462,1,208515E-05,1,8765,-0,9386129,1,8765,0,3826963,1,8765,-0,1168231
0,1448654,8,728161E-06,1,88325,-0,866102,1,88325,0,03222705,1,88325,-0,2135042,0,1448654,9,903106E-06,1,88325,-0,9386129,1,88325,0,3826963,1,88325,-0,1087663
0,1453846,9,231708E-06,1,89,-0,866102,1,89,0,03222705,1,89,-0,2094758,0,1453846,8,89601E-06,1,89,-0,9426414,1,89,0,3786679,1,89,-0,1127947
0,1459038,9,231708E-06,1,89675,-0,866102,1,89675,0,03222705,1,89675,-0,2094758,0,1459038,9,231708E-06,1,89675,-0,9265279,1,89675,0,3706111,1,89675,-0,1168231
0,1464231,1,15816E-05,1,9035,-0,8620737,1,9035,0,03222705,1,9035,-0,2094758,0,1464231,7,721065E-06,1,9035,-0,9265279,1,9035,0,358526,1,9035,-0,1168231
0,1469423,1,460288E-05,1,91025,-0,8580453,1,91025,0,03625543,1,91025,-0,2135042,0,1469423,5,874724E-06,1,91025,-0,9144427,1,91025,0,3504692,1,91025,-0,136965
0,1474615,1,426719E-05,1,917,-0,8499885,1,917,0,04028382,1,917,-0,221561,0,1474615,3,692683E-06,1,917,-0,9104142,1,917,0,3464408,1,917,-0,136965
0,1479808,1,292439E-05,1,92375,-0,8459601,1,92375,0,03625543,1,92375,-0,2255894,0,1479808,5,035477E-06,1,92375,-0,9063858,1,92375,0,3383841,1,92375,-0,1289082
0,1485,1,326009E-05,1,9305,-0,8379034,1,9305,0,04028382,1,9305,-0,2296178,0,1485,9,231708E-06,1,9305,-0,9023575,1,9305,0,3383841,1,9305,-0,136965
0,1490192,1,342794E-05,1,93725,-0,8379034,1,93725,0,03625543,1,93725,-0,2336462,0,1490192,9,903106E-06,1,93725,-0,9023575,1,93725,0,3343557,1,93725,-0,1409934
0,1495385,1,393149E-05,1,944,-0,833875,1,944,0,03625543,1,944,-0,2417029,0,1495385,1,02388E-05,1,944,-0,9144427,1,944,0,3343557,1,944,-0,1409934
0,1500577,1,493858E-05,1,95075,-0,833875,1,95075,0,04028382,1,95075,-0,2376745,0,1500577,1,141375E-05,1,95075,-0,9104142,1,95075,0,3343557,1,95075,-0,1409934
0,1505769,1,460288E-05,1,9575,-0,8298466,1,9575,0,04028382,1,9575,-0,2376745,0,1505769,1,12459E-05,1,9575,-0,9144427,1,9575,0,3383841,1,9575,-0,1409934
0,1510962,1,376364E-05,1,96425,-0,833875,1,96425,0,03222705,1,96425,-0,2417029,0,1510962,7,888914E-06,1,96425,-0,9184711,1,96425,0,3424124,1,96425,-0,1530785
0,1516154,1,275654E-05,1,971,-0,8379034,1,971,0,02819867,1,971,-0,2417029,0,1516154,6,881819E-06,1,971,-0,9224994,1,971,0,3504692,1,971,-0,1530785
0,1521346,1,19173E-05,1,97775,-0,8419318,1,97775,0,02819867,1,97775,-0,2376745,0,1521346,7,888914E-06,1,97775,-0,9184711,1,97775,0,3544976,1,97775,-0,1530785
0,1526538,1,12459E-05,1,9845,-0,8459601,1,9845,0,02417029,1,9845,-0,2296178,0,1526538,7,553216E-06,1,9845,-0,9144427,1,9845,0,3665827,1,9845,-0,1450217
0,1531731,1,007095E-05,1,99125,-0,8499885,1,99125,0,02417029,1,99125,-0,2255894,0,1531731,5,203327E-06,1,99125,-0,9144427,1,99125,0,358526,1,99125,-0,1490501
0,1536923,9,231708E-06,1,998,-0,8540169,1,998,0,02819867,1,998,-0,2296178,0,1536923,3,524834E-06,1,998,-0,9224994,1,998,0,358526,1,998,-0,1450217
0,1542115,9,063859E-06,2,00475,-0,8580453,2,00475,0,03222705,2,00475,-0,2296178,0,1542115,5,203327E-06,2,00475,-0,9224994,2,00475,0,358526,2,00475,-0,1450217
0,1547308,8,560311E-06,2,0115,-0,8540169,2,0115,0,04028382,2,0115,-0,2336462,0,1547308,6,71397E-06,2,0115,-0,9184711,2,0115,0,3504692,2,0115,-0,136965
0,15525,7,888914E-06,2,01825,-0,8540169,2,01825,0,04028382,2,01825,-0,2255894,0,15525,8,056764E-06,2,01825,-0,9184711,2,01825,0,358526,2,01825,-0,136965
0,1557692,8,728161E-06,2,025,-0,8499885,2,025,0,04028382,2,025,-0,221561,0,1557692,8,728161E-06,2,025,-0,9184711,2,025,0,3544976,2,025,-0,1329366
0,1562885,9,399557E-06,2,03175,-0,8540169,2,03175,0,0443122,2,03175,-0,2255894,0,1562885,1,040665E-05,2,03175,-0,9184711,2,03175,0,358526,2,03175,-0,1289082
0,1568077,1,141375E-05,2,0385,-0,8499885,2,0385,0,04028382,2,0385,-0,2296178,0,1568077,1,275654E-05,2,0385,-0,9224994,2,0385,0,3544976,2,0385,-0,1289082
0,1573269,1,326009E-05,2,04525,-0,8580453,2,04525,0,04028382,2,04525,-0,2255894,0,1573269,1,19173E-05,2,04525,-0,9224994,2,04525,0,3544976,2,04525,-0,1289082
0,1578462,1,326009E-05,2,052,-0,8580453,2,052,0,0443122,2,052,-0,2296178,0,1578462,9,063859E-06,2,052,-0,9224994,2,052,0,3544976,2,052,-0,1248798
0,1583654,1,309224E-05,2,05875,-0,8580453,2,05875,0,04028382,2,05875,-0,2296178,0,1583654,9,063859E-06,2,05875,-0,9224994,2,05875,0,3544976,2,05875,-0,1248798
0,1588846,1,242084E-05,2,0655,-0,8540169,2,0655,0,03222705,2,0655,-0,2255894,0,1588846,1,09102E-05,2,0655,-0,9224994,2,0655,0,358526,2,0655,-0,1289082
0,1594038,1,326009E-05,2,07225,-0,8580453,2,07225,0,03625543,2,07225,-0,221561,0,1594038,1,19173E-05,2,07225,-0,9265279,2,07225,0,358526,2,07225,-0,1289082
0,1599231,1,527428E-05,2,079,-0,8580453,2,079,0,02819867,2,079,-0,2255894,0,1599231,1,09102E-05,2,079,-0,9265279,2,079,0,358526,2,079,-0,1289082
0,1604423,1,544213E-05,2,08575,-0,8620737,2,08575,0,02417029,2,08575,-0,2255894,0,1604423,1,05745E-05,2,08575,-0,9265279,2,08575,0,358526,2,08575,-0,1289082
0,1609615,1,460288E-05,2,0925,-0,8620737,2,0925,0,02819867,2,0925,-0,221561,0,1609615,9,567407E-06,2,0925,-0,9305562,2,0925,0,3544976,2,0925,-0,136965
0,1614808,1,326009E-05,2,09925,-0,8620737,2,09925,0,03625543,2,09925,-0,2296178,0,1614808,8,224613E-06,2,09925,-0,9224994,2,09925,0,3504692,2,09925,-0,1409934
0,162,1,292439E-05,2,106,-0,8620737,2,106,0,03222705,2,106,-0,2255894,0,162,6,54612E-06,2,106,-0,9224994,2,106,0,3504692,2,106,-0,136965
0,1625192,1,15816E-05,2,11275,-0,8620737,2,11275,0,03222705,2,11275,-0,2296178,0,1625192,7,217517E-06,2,11275,-0,9265279,2,11275,0,3424124,2,11275,-0,1409934
0,1630385,1,05745E-05,2,1195,-0,8580453,2,1195,0,03625543,2,1195,-0,2296178,0,1630385,8,89601E-06,2,1195,-0,9305562,2,1195,0,3464408,2,1195,-0,136965
0,1635577,1,02388E-05,2,12625,-0,8580453,2,12625,0,04028382,2,12625,-0,2296178,0,1635577,9,735257E-06,2,12625,-0,9224994,2,12625,0,3464408,2,12625,-0,1409934
0,1640769,1,05745E-05,2,133,-0,8459601,2,133,0,0443122,2,133,-0,2336462,0,1640769,1,05745E-05,2,133,-0,9224994,2,133,0,3504692,2,133,-0,1450217
0,1645962,1,141375E-05,2,13975,-0,8419318,2,13975,0,0443122,2,13975,-0,2336462,0,1645962,8,560311E-06,2,13975,-0,9184711,2,13975,0,3544976,2,13975,-0,1409934
0,1651154,1,12459E-05,2,1465,-0,8419318,2,1465,0,0443122,2,1465,-0,2376745,0,1651154,6,210422E-06,2,1465,-0,9144427,2,1465,0,3504692,2,1465,-0,1409934
0,1656346,1,292439E-05,2,15325,-0,8379034,2,15325,0,04834058,2,15325,-0,2336462,0,1656346,5,874724E-06,2,15325,-0,9104142,2,15325,0,358526,2,15325,-0,1409934
0,1661538,1,460288E-05,2,16,-0,8419318,2,16,0,04834058,2,16,-0,2376745,0,1661538,7,553216E-06,2,16,-0,9104142,2,16,0,3706111,2,16,-0,136965
0,1666731,1,309224E-05,2,16675,-0,8499885,2,16675,0,04028382,2,16675,-0,2296178,0,1666731,8,728161E-06,2,16675,-0,9063858,2,16675,0,3665827,2,16675,-0,1409934
0,1671923,1,05745E-05,2,1735,-0,8499885,2,1735,0,04028382,2,1735,-0,2296178,0,1671923,8,224613E-06,2,1735,-0,9144427,2,1735,0,3665827,2,1735,-0,1329366
0,1677115,1,15816E-05,2,18025,-0,8499885,2,18025,0,04028382,2,18025,-0,2175326,0,1677115,7,217517E-06,2,18025,-0,9063858,2,18025,0,3665827,2,18025,-0,136965
0,1682308,1,326009E-05,2,187,-0,8540169,2,187,0,03222705,2,187,-0,2255894,0,1682308,5,539025E-06,2,187,-0,9144427,2,187,0,3625543,2,187,-0,1450217
0,16875,1,292439E-05,2,19375,-0,8499885,2,19375,0,03222705,2,19375,-0,2175326,0,16875,5,203327E-06,2,19375,-0,9144427,2,19375,0,358526,2,19375,-0,136965
0,1692692,1,107805E-05,2,2005,-0,8499885,2,2005,0,02819867,2,2005,-0,221561,0,1692692,6,54612E-06,2,2005,-0,9224994,2,2005,0,3504692,2,2005,-0,136965
0,1697885,9,063859E-06,2,20725,-0,8459601,2,20725,0,03222705,2,20725,-0,221561,0,1697885,7,553216E-06,2,20725,-0,9184711,2,20725,0,3504692,2,20725,-0,136965
0,1703077,9,063859E-06,2,214,-0,8459601,2,214,0,03222705,2,214,-0,221561,0,1703077,8,728161E-06,2,214,-0,9184711,2,214,0,3424124,2,214,-0,1409934
0,1708269,1,05745E-05,2,22075,-0,8499885,2,22075,0,03222705,2,22075,-0,221561,0,1708269,1,05745E-05,2,22075,-0,9184711,2,22075,0,3383841,2,22075,-0,136965
0,1713462,1,242084E-05,2,2275,-0,8499885,2,2275,0,03222705,2,2275,-0,2255894,0,1713462,8,560311E-06,2,2275,-0,9265279,2,2275,0,3424124,2,2275,-0,136965
0,1718654,1,359579E-05,2,23425,-0,8459601,2,23425,0,03625543,2,23425,-0,221561,0,1718654,7,385367E-06,2,23425,-0,9265279,2,23425,0,3464408,2,23425,-0,136965
0,1723846,1,359579E-05,2,241,-0,8459601,2,241,0,03625543,2,241,-0,2296178,0,1723846,9,567407E-06,2,241,-0,9265279,2,241,0,3504692,2,241,-0,1329366
0,1729039,1,242084E-05,2,24775,-0,8499885,2,24775,0,03625543,2,24775,-0,2296178,0,1729039,1,02388E-05,2,24775,-0,9224994,2,24775,0,3504692,2,24775,-0,1409934
0,1734231,1,15816E-05,2,2545,-0,8540169,2,2545,0,03625543,2,2545,-0,2296178,0,1734231,8,560311E-06,2,2545,-0,9224994,2,2545,0,3544976,2,2545,-0,136965
0,1739423,1,309224E-05,2,26125,-0,8540169,2,26125,0,03222705,2,26125,-0,2296178,0,1739423,6,210422E-06,2,26125,-0,9184711,2,26125,0,3544976,2,26125,-0,1329366
0,1744615,1,309224E-05,2,268,-0,8580453,2,268,0,03222705,2,268,-0,2255894,0,1744615,4,867628E-06,2,268,-0,9184711,2,268,0,3504692,2,268,-0,136965
0,1749808,1,174945E-05,2,27475,-0,8459601,2,27475,0,03625543,2,27475,-0,2135042,0,1749808,4,531929E-06,2,27475,-0,9144427,2,27475,0,3504692,2,27475,-0,1329366
0,1755,1,05745E-05,2,2815,-0,8499885,2,2815,0,03625543,2,2815,-0,2175326,0,1755,5,203327E-06,2,2815,-0,9184711,2,2815,0,3464408,2,2815,-0,1329366
0,1760192,1,02388E-05,2,28825,-0,8459601,2,28825,0,04028382,2,28825,-0,2175326,0,1760192,7,888914E-06,2,28825,-0,9224994,2,28825,0,3424124,2,28825,-0,136965
0,1765385,1,040665E-05,2,295,-0,8580453,2,295,0,03625543,2,295,-0,2296178,0,1765385,9,567407E-06,2,295,-0,9224994,2,295,0,3464408,2,295,-0,1329366
0,1770577,1,05745E-05,2,30175,-0,8620737,2,30175,0,03222705,2,30175,-0,2255894,0,1770577,8,89601E-06,2,30175,-0,9265279,2,30175,0,3464408,2,30175,-0,1409934
0,1775769,9,735257E-06,2,3085,-0,8620737,2,3085,0,03222705,2,3085,-0,2376745,0,1775769,7,888914E-06,2,3085,-0,9345846,2,3085,0,3625543,2,3085,-0,136965
0,1780962,9,903106E-06,2,31525,-0,8540169,2,31525,0,03625543,2,31525,-0,2376745,0,1780962,6,881819E-06,2,31525,-0,9305562,2,31525,0,3625543,2,31525,-0,1329366
0,1786154,1,09102E-05,2,322,-0,8540169,2,322,0,0443122,2,322,-0,2255894,0,1786154,6,881819E-06,2,322,-0,9305562,2,322,0,358526,2,322,-0,1329366
0,1791346,1,02388E-05,2,32875,-0,8459601,2,32875,0,0443122,2,32875,-0,2255894,0,1791346,6,71397E-06,2,32875,-0,9345846,2,32875,0,3544976,2,32875,-0,1329366
0,1796539,9,063859E-06,2,3355,-0,8499885,2,3355,0,05236896,2,3355,-0,2255894,0,1796539,5,874724E-06,2,3355,-0,9265279,2,3355,0,3464408,2,3355,-0,1329366
0,1801731,6,54612E-06,2,34225,-0,8540169,2,34225,0,05639734,2,34225,-0,2255894,0,1801731,8,392462E-06,2,34225,-0,9224994,2,34225,0,3464408,2,34225,-0,1329366
0,1806923,5,874724E-06,2,349,-0,8580453,2,349,0,05236896,2,349,-0,2296178,0,1806923,9,567407E-06,2,349,-0,9265279,2,349,0,3504692,2,349,-0,136965
0,1812115,9,063859E-06,2,35575,-0,866102,2,35575,0,0443122,2,35575,-0,2336462,0,1812115,9,063859E-06,2,35575,-0,9265279,2,35575,0,3424124,2,35575,-0,136965
0,1817308,1,292439E-05,2,3625,-0,8620737,2,3625,0,03625543,2,3625,-0,2336462,0,1817308,9,399557E-06,2,3625,-0,9265279,2,3625,0,3544976,2,3625,-0,136965
0,18225,1,460288E-05,2,36925,-0,8620737,2,36925,0,03625543,2,36925,-0,2296178,0,18225,8,89601E-06,2,36925,-0,9345846,2,36925,0,3544976,2,36925,-0,1329366
0,1827692,1,393149E-05,2,376,-0,8620737,2,376,0,03222705,2,376,-0,2296178,0,1827692,9,903106E-06,2,376,-0,9345846,2,376,0,3544976,2,376,-0,1329366
0,1832885,1,12459E-05,2,38275,-0,8620737,2,38275,0,02819867,2,38275,-0,2255894,0,1832885,1,15816E-05,2,38275,-0,9345846,2,38275,0,358526,2,38275,-0,1208515
0,1838077,1,02388E-05,2,3895,-0,8580453,2,3895,0,02819867,2,3895,-0,221561,0,1838077,1,141375E-05,2,3895,-0,9345846,2,3895,0,3544976,2,3895,-0,1208515
0,1843269,1,19173E-05,2,39625,-0,8580453,2,39625,0,02819867,2,39625,-0,2175326,0,1843269,1,02388E-05,2,39625,-0,9305562,2,39625,0,3464408,2,39625,-0,1248798
0,1848462,1,292439E-05,2,403,-0,8580453,2,403,0,03222705,2,403,-0,2175326,0,1848462,9,231708E-06,2,403,-0,9265279,2,403,0,3504692,2,403,-0,1329366
0,1853654,1,15816E-05,2,40975,-0,8459601,2,40975,0,03625543,2,40975,-0,221561,0,1853654,8,224613E-06,2,40975,-0,9184711,2,40975,0,3504692,2,40975,-0,1329366
0,1858846,1,141375E-05,2,4165,-0,8459601,2,4165,0,04028382,2,4165,-0,2175326,0,1858846,7,888914E-06,2,4165,-0,9144427,2,4165,0,3464408,2,4165,-0,1450217
0,1864039,1,174945E-05,2,42325,-0,8459601,2,42325,0,0443122,2,42325,-0,221561,0,1864039,8,392462E-06,2,42325,-0,9063858,2,42325,0,3504692,2,42325,-0,136965
0,1869231,1,12459E-05,2,43,-0,8459601,2,43,0,04028382,2,43,-0,2296178,0,1869231,7,553216E-06,2,43,-0,9063858,2,43,0,3464408,2,43,-0,1409934
0,1874423,1,19173E-05,2,43675,-0,8419318,2,43675,0,03625543,2,43675,-0,2336462,0,1874423,6,881819E-06,2,43675,-0,9023575,2,43675,0,3464408,2,43675,-0,1329366
0,1879615,1,242084E-05,2,4435,-0,8379034,2,4435,0,03222705,2,4435,-0,2417029,0,1879615,6,378271E-06,2,4435,-0,9063858,2,4435,0,3424124,2,4435,-0,136965
0,1884808,1,02388E-05,2,45025,-0,8379034,2,45025,0,04028382,2,45025,-0,2376745,0,1884808,7,553216E-06,2,45025,-0,9063858,2,45025,0,3464408,2,45025,-0,136965
0,189,8,224613E-06,2,457,-0,8459601,2,457,0,03222705,2,457,-0,2336462,0,189,8,560311E-06,2,457,-0,9104142,2,457,0,3504692,2,457,-0,1409934
0,1895192,6,210422E-06,2,46375,-0,8419318,2,46375,0,03625543,2,46375,-0,2336462,0,1895192,1,02388E-05,2,46375,-0,9184711,2,46375,0,3464408,2,46375,-0,1490501
0,1900385,6,210422E-06,2,4705,-0,8419318,2,4705,0,03222705,2,4705,-0,2376745,0,1900385,1,107805E-05,2,4705,-0,9184711,2,4705,0,3464408,2,4705,-0,1450217
0,1905577,8,224613E-06,2,47725,-0,8419318,2,47725,0,03625543,2,47725,-0,2296178,0,1905577,1,15816E-05,2,47725,-0,9224994,2,47725,0,3544976,2,47725,-0,1490501
0,1910769,7,888914E-06,2,484,-0,8459601,2,484,0,03222705,2,484,-0,2376745,0,1910769,1,107805E-05,2,484,-0,9224994,2,484,0,3504692,2,484,-0,1490501
0,1915962,7,049668E-06,2,49075,-0,8459601,2,49075,0,03625543,2,49075,-0,2336462,0,1915962,8,560311E-06,2,49075,-0,9144427,2,49075,0,3544976,2,49075,-0,1490501
0,1921154,7,888914E-06,2,4975,-0,8540169,2,4975,0,04028382,2,4975,-0,2336462,0,1921154,6,881819E-06,2,4975,-0,9224994,2,4975,0,3544976,2,4975,-0,1490501
0,1926346,9,231708E-06,2,50425,-0,8580453,2,50425,0,05236896,2,50425,-0,2336462,0,1926346,7,049668E-06,2,50425,-0,9224994,2,50425,0,3625543,2,50425,-0,1409934
0,1931538,1,02388E-05,2,511,-0,8620737,2,511,0,04834058,2,511,-0,2336462,0,1931538,9,231708E-06,2,511,-0,9265279,2,511,0,358526,2,511,-0,1450217
0,1936731,9,231708E-06,2,51775,-0,8540169,2,51775,0,04028382,2,51775,-0,2296178,0,1936731,1,15816E-05,2,51775,-0,9265279,2,51775,0,3625543,2,51775,-0,1329366
0,1941923,7,217517E-06,2,5245,-0,8540169,2,5245,0,03625543,2,5245,-0,2255894,0,1941923,1,040665E-05,2,5245,-0,9224994,2,5245,0,3544976,2,5245,-0,1289082
0,1947115,7,721065E-06,2,53125,-0,8540169,2,53125,0,04028382,2,53125,-0,221561,0,1947115,7,553216E-06,2,53125,-0,9224994,2,53125,0,3625543,2,53125,-0,1208515
0,1952308,1,107805E-05,2,538,-0,8540169,2,538,0,03625543,2,538,-0,221561,0,1952308,5,874724E-06,2,538,-0,9184711,2,538,0,3544976,2,538,-0,1329366
0,19575,1,19173E-05,2,54475,-0,8540169,2,54475,0,03222705,2,54475,-0,221561,0,19575,5,706875E-06,2,54475,-0,9224994,2,54475,0,3544976,2,54475,-0,1289082
0,1962692,1,141375E-05,2,5515,-0,8540169,2,5515,0,02819867,2,5515,-0,2255894,0,1962692,7,385367E-06,2,5515,-0,9184711,2,5515,0,3544976,2,5515,-0,1289082
0,1967885,1,09102E-05,2,55825,-0,8620737,2,55825,0,03222705,2,55825,-0,221561,0,1967885,1,09102E-05,2,55825,-0,9224994,2,55825,0,3464408,2,55825,-0,1248798
0,1973077,1,040665E-05,2,565,-0,8540169,2,565,0,03222705,2,565,-0,2255894,0,1973077,1,107805E-05,2,565,-0,9144427,2,565,0,3424124,2,565,-0,1248798
0,1978269,9,903106E-06,2,57175,-0,8499885,2,57175,0,03222705,2,57175,-0,2255894,0,1978269,8,560311E-06,2,57175,-0,9224994,2,57175,0,3464408,2,57175,-0,1289082
0,1983462,9,399557E-06,2,5785,-0,8540169,2,5785,0,03222705,2,5785,-0,221561,0,1983462,8,224613E-06,2,5785,-0,9184711,2,5785,0,3464408,2,5785,-0,136965
0,1988654,7,888914E-06,2,58525,-0,8540169,2,58525,0,03222705,2,58525,-0,2296178,0,1988654,7,888914E-06,2,58525,-0,9224994,2,58525,0,3424124,2,58525,-0,136965
0,1993846,7,217517E-06,2,592,-0,8540169,2,592,0,03222705,2,592,-0,2296178,0,1993846,8,224613E-06,2,592,-0,9305562,2,592,0,3424124,2,592,-0,1409934
0,1999038,7,049668E-06,2,59875,-0,8540169,2,59875,0,03625543,2,59875,-0,2255894,0,1999038,9,063859E-06,2,59875,-0,9305562,2,59875,0,3464408,2,59875,-0,136965
0,2004231,8,728161E-06,2,6055,-0,8499885,2,6055,0,03625543,2,6055,-0,2296178,0,2004231,9,567407E-06,2,6055,-0,9224994,2,6055,0,3464408,2,6055,-0,1450217
0,2009423,1,12459E-05,2,61225,-0,8499885,2,61225,0,03625543,2,61225,-0,221561,0,2009423,6,71397E-06,2,61225,-0,9184711,2,61225,0,3504692,2,61225,-0,1409934
0,2014615,1,12459E-05,2,619,-0,8499885,2,619,0,0443122,2,619,-0,2296178,0,2014615,3,021286E-06,2,619,-0,9265279,2,619,0,3424124,2,619,-0,1409934
0,2019808,9,231708E-06,2,62575,-0,8540169,2,62575,0,0443122,2,62575,-0,2255894,0,2019808,1,846342E-06,2,62575,-0,9224994,2,62575,0,3504692,2,62575,-0,1329366
0,2025,9,231708E-06,2,6325,-0,8499885,2,6325,0,04028382,2,6325,-0,2336462,0,2025,3,021286E-06,2,6325,-0,9184711,2,6325,0,3504692,2,6325,-0,1409934
0,2030192,9,567407E-06,2,63925,-0,8459601,2,63925,0,04028382,2,63925,-0,2336462,0,2030192,6,71397E-06,2,63925,-0,9144427,2,63925,0,358526,2,63925,-0,1289082
0,2035385,9,231708E-06,2,646,-0,8499885,2,646,0,04028382,2,646,-0,2336462,0,2035385,1,05745E-05,2,646,-0,9144427,2,646,0,3504692,2,646,-0,136965
0,2040577,8,89601E-06,2,65275,-0,8499885,2,65275,0,0443122,2,65275,-0,2336462,0,2040577,1,02388E-05,2,65275,-0,9144427,2,65275,0,358526,2,65275,-0,1289082
0,2045769,7,888914E-06,2,6595,-0,8499885,2,6595,0,0443122,2,6595,-0,2296178,0,2045769,7,721065E-06,2,6595,-0,9144427,2,6595,0,3544976,2,6595,-0,136965
0,2050962,8,728161E-06,2,66625,-0,8459601,2,66625,0,0443122,2,66625,-0,2255894,0,2050962,6,881819E-06,2,66625,-0,9184711,2,66625,0,3544976,2,66625,-0,1248798
0,2056154,1,02388E-05,2,673,-0,8540169,2,673,0,0443122,2,673,-0,2255894,0,2056154,9,231708E-06,2,673,-0,9224994,2,673,0,3544976,2,673,-0,1329366
0,2061346,1,225299E-05,2,67975,-0,8499885,2,67975,0,03625543,2,67975,-0,2255894,0,2061346,1,040665E-05,2,67975,-0,9224994,2,67975,0,3544976,2,67975,-0,1329366
0,2066538,1,393149E-05,2,6865,-0,8499885,2,6865,0,03625543,2,6865,-0,2255894,0,2066538,1,05745E-05,2,6865,-0,9224994,2,6865,0,3544976,2,6865,-0,1329366
0,2071731,1,326009E-05,2,69325,-0,8499885,2,69325,0,03625543,2,69325,-0,221561,0,2071731,1,258869E-05,2,69325,-0,9224994,2,69325,0,3544976,2,69325,-0,136965
0,2076923,1,208515E-05,2,7,-0,8540169,2,7,0,03625543,2,7,-0,221561,0,2076923,1,342794E-05,2,7,-0,9265279,2,7,0,3544976,2,7,-0,1409934
0,2082115,1,174945E-05,2,70675,-0,8459601,2,70675,0,03625543,2,70675,-0,2175326,0,2082115,1,09102E-05,2,70675,-0,9305562,2,70675,0,3504692,2,70675,-0,136965
0,2087308,1,225299E-05,2,7135,-0,8540169,2,7135,0,03222705,2,7135,-0,2175326,0,2087308,6,881819E-06,2,7135,-0,9224994,2,7135,0,3504692,2,7135,-0,136965
0,20925,1,225299E-05,2,72025,-0,8499885,2,72025,0,03625543,2,72025,-0,221561,0,20925,6,042573E-06,2,72025,-0,9224994,2,72025,0,3464408,2,72025,-0,1409934
0,2097692,1,242084E-05,2,727,-0,8540169,2,727,0,03222705,2,727,-0,2255894,0,2097692,1,02388E-05,2,727,-0,9184711,2,727,0,3464408,2,727,-0,136965
0,2102885,1,05745E-05,2,73375,-0,8499885,2,73375,0,03222705,2,73375,-0,2255894,0,2102885,1,258869E-05,2,73375,-0,9265279,2,73375,0,3464408,2,73375,-0,136965
0,2108077,9,231708E-06,2,7405,-0,8540169,2,7405,0,03222705,2,7405,-0,2255894,0,2108077,1,242084E-05,2,7405,-0,9224994,2,7405,0,3464408,2,7405,-0,1329366
0,2113269,1,007095E-05,2,74725,-0,8499885,2,74725,0,03625543,2,74725,-0,2255894,0,2113269,1,19173E-05,2,74725,-0,9265279,2,74725,0,3383841,2,74725,-0,136965
0,2118462,1,02388E-05,2,754,-0,8540169,2,754,0,04028382,2,754,-0,2336462,0,2118462,1,208515E-05,2,754,-0,9265279,2,754,0,3464408,2,754,-0,1289082
0,2123654,9,735257E-06,2,76075,-0,8540169,2,76075,0,04028382,2,76075,-0,2336462,0,2123654,1,493858E-05,2,76075,-0,9265279,2,76075,0,3464408,2,76075,-0,1329366
0,2128846,9,567407E-06,2,7675,-0,8499885,2,7675,0,0443122,2,7675,-0,2376745,0,2128846,1,913481E-05,2,7675,-0,9305562,2,7675,0,3424124,2,7675,-0,1409934
0,2134039,8,560311E-06,2,77425,-0,8540169,2,77425,0,0443122,2,77425,-0,2336462,0,2134039,2,064546E-05,2,77425,-0,9265279,2,77425,0,3464408,2,77425,-0,136965
0,2139231,8,560311E-06,2,781,-0,8540169,2,781,0,04028382,2,781,-0,2417029,0,2139231,1,644923E-05,2,781,-0,9224994,2,781,0,3424124,2,781,-0,1329366
0,2144423,9,231708E-06,2,78775,-0,8459601,2,78775,0,04834058,2,78775,-0,2296178,0,2144423,1,19173E-05,2,78775,-0,9224994,2,78775,0,3383841,2,78775,-0,1329366
0,2149615,9,903106E-06,2,7945,-0,8459601,2,7945,0,04834058,2,7945,-0,2175326,0,2149615,1,12459E-05,2,7945,-0,9224994,2,7945,0,3464408,2,7945,-0,1329366
0,2154808,1,141375E-05,2,80125,-0,8419318,2,80125,0,04834058,2,80125,-0,2175326,0,2154808,1,05745E-05,2,80125,-0,9184711,2,80125,0,3544976,2,80125,-0,136965
0,216,1,426719E-05,2,808,-0,8459601,2,808,0,0443122,2,808,-0,2255894,0,216,8,728161E-06,2,808,-0,9224994,2,808,0,3464408,2,808,-0,1409934
0,2165192,1,577783E-05,2,81475,-0,8540169,2,81475,0,03625543,2,81475,-0,2296178,0,2165192,7,888914E-06,2,81475,-0,9224994,2,81475,0,358526,2,81475,-0,136965
0,2170385,1,493858E-05,2,8215,-0,8580453,2,8215,0,02417029,2,8215,-0,2336462,0,2170385,6,881819E-06,2,8215,-0,9265279,2,8215,0,358526,2,8215,-0,1329366
0,2175577,1,12459E-05,2,82825,-0,8580453,2,82825,0,02819867,2,82825,-0,2296178,0,2175577,5,874724E-06,2,82825,-0,9224994,2,82825,0,3625543,2,82825,-0,136965
0,2180769,7,217517E-06,2,835,-0,8459601,2,835,0,02819867,2,835,-0,2255894,0,2180769,6,210422E-06,2,835,-0,9184711,2,835,0,3665827,2,835,-0,136965
0,2185962,6,881819E-06,2,84175,-0,8419318,2,84175,0,03625543,2,84175,-0,2175326,0,2185962,7,385367E-06,2,84175,-0,9144427,2,84175,0,358526,2,84175,-0,136965
0,2191154,9,231708E-06,2,8485,-0,8419318,2,8485,0,04028382,2,8485,-0,2175326,0,2191154,5,874724E-06,2,8485,-0,9144427,2,8485,0,3504692,2,8485,-0,1329366
0,2196346,1,02388E-05,2,85525,-0,8419318,2,85525,0,04028382,2,85525,-0,2135042,0,2196346,3,692683E-06,2,85525,-0,9184711,2,85525,0,3464408,2,85525,-0,136965
0,2201539,1,225299E-05,2,862,-0,8459601,2,862,0,0443122,2,862,-0,2175326,0,2201539,3,189135E-06,2,862,-0,9144427,2,862,0,3464408,2,862,-0,1409934
0,2206731,1,326009E-05,2,86875,-0,8540169,2,86875,0,0443122,2,86875,-0,221561,0,2206731,2,685588E-06,2,86875,-0,9184711,2,86875,0,3424124,2,86875,-0,1450217
0,2211923,1,19173E-05,2,8755,-0,8540169,2,8755,0,04028382,2,8755,-0,2336462,0,2211923,3,356985E-06,2,8755,-0,9184711,2,8755,0,3504692,2,8755,-0,1450217
0,2217115,1,258869E-05,2,88225,-0,8540169,2,88225,0,03625543,2,88225,-0,2376745,0,2217115,3,356985E-06,2,88225,-0,9184711,2,88225,0,3544976,2,88225,-0,136965
0,2222308,1,393149E-05,2,889,-0,8580453,2,889,0,03625543,2,889,-0,2336462,0,2222308,4,36408E-06,2,889,-0,9265279,2,889,0,3544976,2,889,-0,1329366
0,22275,1,460288E-05,2,89575,-0,8580453,2,89575,0,03625543,2,89575,-0,2296178,0,22275,6,54612E-06,2,89575,-0,9345846,2,89575,0,3544976,2,89575,-0,1248798
0,2232692,1,544213E-05,2,9025,-0,8620737,2,9025,0,03222705,2,9025,-0,2336462,0,2232692,6,54612E-06,2,9025,-0,9345846,2,9025,0,3544976,2,9025,-0,1248798
0,2237885,1,443503E-05,2,90925,-0,8620737,2,90925,0,03222705,2,90925,-0,2175326,0,2237885,5,874724E-06,2,90925,-0,9386129,2,90925,0,3544976,2,90925,-0,1248798
0,2243077,1,242084E-05,2,916,-0,866102,2,916,0,03625543,2,916,-0,2175326,0,2243077,7,049668E-06,2,916,-0,9426414,2,916,0,3544976,2,916,-0,1289082
0,2248269,1,174945E-05,2,92275,-0,8620737,2,92275,0,03625543,2,92275,-0,221561,0,2248269,7,553216E-06,2,92275,-0,9305562,2,92275,0,3504692,2,92275,-0,1289082
0,2253462,1,19173E-05,2,9295,-0,8620737,2,9295,0,04028382,2,9295,-0,2255894,0,2253462,5,874724E-06,2,9295,-0,9345846,2,9295,0,3383841,2,9295,-0,136965
0,2258654,1,258869E-05,2,93625,-0,8580453,2,93625,0,04834058,2,93625,-0,2296178,0,2258654,3,860533E-06,2,93625,-0,9265279,2,93625,0,3464408,2,93625,-0,136965
0,2263846,1,326009E-05,2,943,-0,8580453,2,943,0,0443122,2,943,-0,2376745,0,2263846,3,189135E-06,2,943,-0,9224994,2,943,0,3424124,2,943,-0,1409934
0,2269039,1,12459E-05,2,94975,-0,8540169,2,94975,0,0443122,2,94975,-0,2376745,0,2269039,6,042573E-06,2,94975,-0,9144427,2,94975,0,3424124,2,94975,-0,1409934
0,2274231,1,05745E-05,2,9565,-0,8499885,2,9565,0,0443122,2,9565,-0,2336462,0,2274231,7,888914E-06,2,9565,-0,9144427,2,9565,0,3464408,2,9565,-0,1450217
0,2279423,1,208515E-05,2,96325,-0,8419318,2,96325,0,0443122,2,96325,-0,2376745,0,2279423,5,203327E-06,2,96325,-0,9144427,2,96325,0,3424124,2,96325,-0,1450217
0,2284615,1,292439E-05,2,97,-0,8419318,2,97,0,0443122,2,97,-0,2417029,0,2284615,3,860533E-06,2,97,-0,9144427,2,97,0,3464408,2,97,-0,1450217
0,2289808,1,242084E-05,2,97675,-0,8459601,2,97675,0,0443122,2,97675,-0,2296178,0,2289808,4,196231E-06,2,97675,-0,9224994,2,97675,0,3464408,2,97675,-0,1450217
0,2295,1,15816E-05,2,9835,-0,8419318,2,9835,0,0443122,2,9835,-0,2336462,0,2295,1,510643E-06,2,9835,-0,9224994,2,9835,0,3504692,2,9835,-0,1490501
0,2300192,1,05745E-05,2,99025,-0,8379034,2,99025,0,03625543,2,99025,-0,2296178,0,2300192,1,846342E-06,2,99025,-0,9224994,2,99025,0,358526,2,99025,-0,1490501
0,2305385,1,05745E-05,2,997,-0,8459601,2,997,0,03625543,2,997,-0,2296178,0,2305385,5,203327E-06,2,997,-0,9265279,2,997,0,358526,2,997,-0,1450217
0,2310577,9,903106E-06,3,00375,-0,8459601,3,00375,0,04028382,3,00375,-0,2255894,0,2310577,8,560311E-06,3,00375,-0,9184711,3,00375,0,3625543,3,00375,-0,1450217
0,2315769,8,560311E-06,3,0105,-0,8499885,3,0105,0,03625543,3,0105,-0,221561,0,2315769,1,258869E-05,3,0105,-0,9144427,3,0105,0,358526,3,0105,-0,1409934
0,2320962,9,231708E-06,3,01725,-0,8499885,3,01725,0,03625543,3,01725,-0,2175326,0,2320962,1,493858E-05,3,01725,-0,9184711,3,01725,0,358526,3,01725,-0,1329366
0,2326154,1,09102E-05,3,024,-0,8499885,3,024,0,04028382,3,024,-0,221561,0,2326154,1,292439E-05,3,024,-0,9224994,3,024,0,3544976,3,024,-0,1329366
0,2331346,1,12459E-05,3,03075,-0,8499885,3,03075,0,04028382,3,03075,-0,221561,0,2331346,1,12459E-05,3,03075,-0,9184711,3,03075,0,358526,3,03075,-0,1289082
0,2336538,1,12459E-05,3,0375,-0,8499885,3,0375,0,03222705,3,0375,-0,2175326,0,2336538,1,15816E-05,3,0375,-0,9144427,3,0375,0,3544976,3,0375,-0,1127947
0,2341731,1,05745E-05,3,04425,-0,8459601,3,04425,0,04028382,3,04425,-0,2135042,0,2341731,1,443503E-05,3,04425,-0,9144427,3,04425,0,3504692,3,04425,-0,1248798
0,2346923,1,05745E-05,3,051,-0,8459601,3,051,0,03625543,3,051,-0,2135042,0,2346923,1,493858E-05,3,051,-0,9144427,3,051,0,3424124,3,051,-0,1208515
0,2352115,1,275654E-05,3,05775,-0,8419318,3,05775,0,03625543,3,05775,-0,2135042,0,2352115,1,15816E-05,3,05775,-0,9184711,3,05775,0,3464408,3,05775,-0,1289082
0,2357308,1,393149E-05,3,0645,-0,8459601,3,0645,0,03625543,3,0645,-0,221561,0,2357308,8,89601E-06,3,0645,-0,9184711,3,0645,0,3464408,3,0645,-0,1208515
0,23625,1,225299E-05,3,07125,-0,8499885,3,07125,0,03625543,3,07125,-0,221561,0,23625,7,888914E-06,3,07125,-0,9184711,3,07125,0,3464408,3,07125,-0,1208515
0,2367692,1,05745E-05,3,078,-0,8540169,3,078,0,03222705,3,078,-0,221561,0,2367692,7,049668E-06,3,078,-0,9305562,3,078,0,3424124,3,078,-0,1329366
0,2372885,9,903106E-06,3,08475,-0,8540169,3,08475,0,03625543,3,08475,-0,2296178,0,2372885,8,728161E-06,3,08475,-0,9265279,3,08475,0,3424124,3,08475,-0,1289082
0,2378077,9,231708E-06,3,0915,-0,8499885,3,0915,0,03222705,3,0915,-0,2296178,0,2378077,7,888914E-06,3,0915,-0,9305562,3,0915,0,3383841,3,0915,-0,1409934
0,2383269,9,231708E-06,3,09825,-0,8540169,3,09825,0,03625543,3,09825,-0,2336462,0,2383269,4,699778E-06,3,09825,-0,9224994,3,09825,0,3383841,3,09825,-0,1409934
0,2388462,1,107805E-05,3,105,-0,8499885,3,105,0,03625543,3,105,-0,2296178,0,2388462,2,853437E-06,3,105,-0,9265279,3,105,0,3383841,3,105,-0,1490501
0,2393654,1,342794E-05,3,11175,-0,8459601,3,11175,0,04028382,3,11175,-0,2255894,0,2393654,3,692683E-06,3,11175,-0,9224994,3,11175,0,3424124,3,11175,-0,136965
0,2398846,1,326009E-05,3,1185,-0,8459601,3,1185,0,04028382,3,1185,-0,2296178,0,2398846,4,196231E-06,3,1185,-0,9265279,3,1185,0,3424124,3,1185,-0,1450217
0,2404038,1,15816E-05,3,12525,-0,8499885,3,12525,0,05236896,3,12525,-0,2296178,0,2404038,7,217517E-06,3,12525,-0,9265279,3,12525,0,3504692,3,12525,-0,1409934
0,2409231,1,141375E-05,3,132,-0,8499885,3,132,0,05639734,3,132,-0,2255894,0,2409231,9,567407E-06,3,132,-0,9265279,3,132,0,3544976,3,132,-0,1450217
0,2414423,1,359579E-05,3,13875,-0,8540169,3,13875,0,05236896,3,13875,-0,2296178,0,2414423,1,040665E-05,3,13875,-0,9224994,3,13875,0,3504692,3,13875,-0,1329366
0,2419615,1,493858E-05,3,1455,-0,8540169,3,1455,0,04834058,3,1455,-0,2296178,0,2419615,1,393149E-05,3,1455,-0,9224994,3,1455,0,3544976,3,1455,-0,136965
0,2424808,1,326009E-05,3,15225,-0,8540169,3,15225,0,05236896,3,15225,-0,2255894,0,2424808,1,695277E-05,3,15225,-0,9265279,3,15225,0,3625543,3,15225,-0,1329366
0,243,1,174945E-05,3,159,-0,8540169,3,159,0,0443122,3,159,-0,2296178,0,243,1,846342E-05,3,159,-0,9224994,3,159,0,3544976,3,159,-0,1329366
0,2435192,1,15816E-05,3,16575,-0,8580453,3,16575,0,0443122,3,16575,-0,2296178,0,2435192,2,131685E-05,3,16575,-0,9184711,3,16575,0,3544976,3,16575,-0,1289082
0,2440385,1,225299E-05,3,1725,-0,8540169,3,1725,0,04028382,3,1725,-0,2255894,0,2440385,1,829557E-05,3,1725,-0,9184711,3,1725,0,3504692,3,1725,-0,1329366
0,2445577,1,19173E-05,3,17925,-0,8540169,3,17925,0,03222705,3,17925,-0,2255894,0,2445577,1,208515E-05,3,17925,-0,9184711,3,17925,0,3504692,3,17925,-0,1289082
0,2450769,9,903106E-06,3,186,-0,8540169,3,186,0,03625543,3,186,-0,2296178,0,2450769,1,02388E-05,3,186,-0,9184711,3,186,0,3464408,3,186,-0,1409934
0,2455962,9,231708E-06,3,19275,-0,8540169,3,19275,0,04028382,3,19275,-0,2336462,0,2455962,1,15816E-05,3,19275,-0,9144427,3,19275,0,3464408,3,19275,-0,136965
0,2461154,9,231708E-06,3,1995,-0,8499885,3,1995,0,03625543,3,1995,-0,221561,0,2461154,1,007095E-05,3,1995,-0,9265279,3,1995,0,3424124,3,1995,-0,136965
0,2466346,9,735257E-06,3,20625,-0,8499885,3,20625,0,04028382,3,20625,-0,221561,0,2466346,7,217517E-06,3,20625,-0,9224994,3,20625,0,3504692,3,20625,-0,1409934
0,2471538,1,19173E-05,3,213,-0,8499885,3,213,0,0443122,3,213,-0,221561,0,2471538,7,553216E-06,3,213,-0,9224994,3,213,0,3424124,3,213,-0,136965
0,2476731,1,258869E-05,3,21975,-0,8540169,3,21975,0,0443122,3,21975,-0,2175326,0,2476731,9,231708E-06,3,21975,-0,9265279,3,21975,0,3424124,3,21975,-0,1329366
0,2481923,1,174945E-05,3,2265,-0,8540169,3,2265,0,04028382,3,2265,-0,221561,0,2481923,1,040665E-05,3,2265,-0,9305562,3,2265,0,3424124,3,2265,-0,1329366
0,2487115,1,09102E-05,3,23325,-0,8499885,3,23325,0,04028382,3,23325,-0,2175326,0,2487115,1,141375E-05,3,23325,-0,9224994,3,23325,0,3383841,3,23325,-0,1248798
0,2492308,1,09102E-05,3,24,-0,8459601,3,24,0,03625543,3,24,-0,2255894,0,2492308,1,292439E-05,3,24,-0,9265279,3,24,0,3464408,3,24,-0,1329366
0,24975,1,19173E-05,3,24675,-0,8540169,3,24675,0,0443122,3,24675,-0,2175326,0,24975,1,309224E-05,3,24675,-0,9265279,3,24675,0,3544976,3,24675,-0,1168231
0,2502692,1,19173E-05,3,2535,-0,8499885,3,2535,0,04028382,3,2535,-0,2255894,0,2502692,1,040665E-05,3,2535,-0,9265279,3,2535,0,3464408,3,2535,-0,1208515
0,2507885,1,05745E-05,3,26025,-0,8540169,3,26025,0,04028382,3,26025,-0,2255894,0,2507885,1,007095E-05,3,26025,-0,9224994,3,26025,0,3504692,3,26025,-0,1208515
0,2513077,1,15816E-05,3,267,-0,8540169,3,267,0,03625543,3,267,-0,2296178,0,2513077,9,903106E-06,3,267,-0,9184711,3,267,0,3504692,3,267,-0,1289082
0,2518269,1,460288E-05,3,27375,-0,8580453,3,27375,0,03625543,3,27375,-0,221561,0,2518269,6,71397E-06,3,27375,-0,9224994,3,27375,0,3504692,3,27375,-0,1248798
0,2523462,1,544213E-05,3,2805,-0,8540169,3,2805,0,03625543,3,2805,-0,221561,0,2523462,3,860533E-06,3,2805,-0,9265279,3,2805,0,3464408,3,2805,-0,1329366
0,2528654,1,393149E-05,3,28725,-0,8499885,3,28725,0,0443122,3,28725,-0,221561,0,2528654,3,524834E-06,3,28725,-0,9224994,3,28725,0,3504692,3,28725,-0,1409934
0,2533846,1,225299E-05,3,294,-0,8499885,3,294,0,04028382,3,294,-0,2296178,0,2533846,4,531929E-06,3,294,-0,9184711,3,294,0,3464408,3,294,-0,1409934
0,2539038,1,02388E-05,3,30075,-0,8459601,3,30075,0,04028382,3,30075,-0,2255894,0,2539038,6,54612E-06,3,30075,-0,9224994,3,30075,0,3464408,3,30075,-0,1490501
0,2544231,1,12459E-05,3,3075,-0,8540169,3,3075,0,03625543,3,3075,-0,2296178,0,2544231,9,231708E-06,3,3075,-0,9224994,3,3075,0,3464408,3,3075,-0,1490501
0,2549423,1,326009E-05,3,31425,-0,8459601,3,31425,0,04028382,3,31425,-0,2296178,0,2549423,1,05745E-05,3,31425,-0,9305562,3,31425,0,3504692,3,31425,-0,1490501
0,2554615,1,460288E-05,3,321,-0,8419318,3,321,0,0443122,3,321,-0,2255894,0,2554615,1,05745E-05,3,321,-0,9265279,3,321,0,3464408,3,321,-0,1490501
0,2559808,1,493858E-05,3,32775,-0,8379034,3,32775,0,05236896,3,32775,-0,221561,0,2559808,9,399557E-06,3,32775,-0,9224994,3,32775,0,3504692,3,32775,-0,1409934
0,2565,1,460288E-05,3,3345,-0,8419318,3,3345,0,05639734,3,3345,-0,2255894,0,2565,6,042573E-06,3,3345,-0,9184711,3,3345,0,3424124,3,3345,-0,1409934
0,2570192,1,409934E-05,3,34125,-0,8419318,3,34125,0,05236896,3,34125,-0,2336462,0,2570192,4,36408E-06,3,34125,-0,9144427,3,34125,0,3544976,3,34125,-0,1329366
0,2575385,1,359579E-05,3,348,-0,8499885,3,348,0,0443122,3,348,-0,2417029,0,2575385,4,196231E-06,3,348,-0,9184711,3,348,0,3504692,3,348,-0,136965
0,2580577,1,15816E-05,3,35475,-0,8499885,3,35475,0,03222705,3,35475,-0,2417029,0,2580577,6,210422E-06,3,35475,-0,9224994,3,35475,0,3544976,3,35475,-0,1208515
0,2585769,1,15816E-05,3,3615,-0,8499885,3,3615,0,03222705,3,3615,-0,2417029,0,2585769,6,042573E-06,3,3615,-0,9224994,3,3615,0,358526,3,3615,-0,1208515
0,2590961,1,359579E-05,3,36825,-0,8459601,3,36825,0,03222705,3,36825,-0,2255894,0,2590961,3,356985E-06,3,36825,-0,9224994,3,36825,0,358526,3,36825,-0,1168231
0,2596154,1,359579E-05,3,375,-0,8499885,3,375,0,03222705,3,375,-0,2135042,0,2596154,3,860533E-06,3,375,-0,9144427,3,375,0,3544976,3,375,-0,1208515
0,2601346,1,12459E-05,3,38175,-0,8459601,3,38175,0,03222705,3,38175,-0,2094758,0,2601346,4,531929E-06,3,38175,-0,9144427,3,38175,0,3424124,3,38175,-0,1208515
0,2606539,9,063859E-06,3,3885,-0,8419318,3,3885,0,03222705,3,3885,-0,2175326,0,2606539,2,517739E-06,3,3885,-0,9144427,3,3885,0,3343557,3,3885,-0,1329366
0,2611731,6,54612E-06,3,39525,-0,8499885,3,39525,0,02819867,3,39525,-0,2175326,0,2611731,1,174945E-06,3,39525,-0,9184711,3,39525,0,3383841,3,39525,-0,1329366
0,2616923,5,874724E-06,3,402,-0,8580453,3,402,0,02417029,3,402,-0,221561,0,2616923,2,014191E-06,3,402,-0,9184711,3,402,0,3383841,3,402,-0,136965
0,2622115,9,063859E-06,3,40875,-0,8580453,3,40875,0,02417029,3,40875,-0,2296178,0,2622115,3,524834E-06,3,40875,-0,9144427,3,40875,0,3424124,3,40875,-0,1450217
0,2627308,1,05745E-05,3,4155,-0,866102,3,4155,0,02417029,3,4155,-0,2376745,0,2627308,4,531929E-06,3,4155,-0,9224994,3,4155,0,3464408,3,4155,-0,1530785
0,26325,9,231708E-06,3,42225,-0,8580453,3,42225,0,02417029,3,42225,-0,2376745,0,26325,5,203327E-06,3,42225,-0,9345846,3,42225,0,3504692,3,42225,-0,1409934
0,2637692,7,721065E-06,3,429,-0,8620737,3,429,0,03222705,3,429,-0,2417029,0,2637692,6,210422E-06,3,429,-0,9345846,3,429,0,3544976,3,429,-0,1450217
0,2642885,6,54612E-06,3,43575,-0,8580453,3,43575,0,03222705,3,43575,-0,2376745,0,2642885,6,54612E-06,3,43575,-0,9426414,3,43575,0,3544976,3,43575,-0,1409934
0,2648077,5,203327E-06,3,4425,-0,8620737,3,4425,0,03222705,3,4425,-0,2296178,0,2648077,7,385367E-06,3,4425,-0,9386129,3,4425,0,3544976,3,4425,-0,1409934
0,2653269,6,54612E-06,3,44925,-0,8620737,3,44925,0,03625543,3,44925,-0,2296178,0,2653269,8,224613E-06,3,44925,-0,9345846,3,44925,0,3544976,3,44925,-0,1450217
0,2658462,9,231708E-06,3,456,-0,8580453,3,456,0,04028382,3,456,-0,2296178,0,2658462,9,567407E-06,3,456,-0,9265279,3,456,0,3464408,3,456,-0,1450217
0,2663654,1,02388E-05,3,46275,-0,8499885,3,46275,0,0443122,3,46275,-0,2255894,0,2663654,1,05745E-05,3,46275,-0,9184711,3,46275,0,3504692,3,46275,-0,1409934
0,2668846,9,735257E-06,3,4695,-0,8499885,3,4695,0,04834058,3,4695,-0,2296178,0,2668846,1,02388E-05,3,4695,-0,9104142,3,4695,0,3464408,3,4695,-0,1409934
0,2674038,8,224613E-06,3,47625,-0,8499885,3,47625,0,04834058,3,47625,-0,2296178,0,2674038,8,728161E-06,3,47625,-0,9023575,3,47625,0,3504692,3,47625,-0,136965
0,2679231,8,89601E-06,3,483,-0,8459601,3,483,0,0443122,3,483,-0,2296178,0,2679231,7,553216E-06,3,483,-0,9023575,3,483,0,3544976,3,483,-0,1409934
0,2684423,9,231708E-06,3,48975,-0,8419318,3,48975,0,0443122,3,48975,-0,2336462,0,2684423,8,560311E-06,3,48975,-0,9023575,3,48975,0,3504692,3,48975,-0,1329366
0,2689615,9,399557E-06,3,4965,-0,8459601,3,4965,0,04028382,3,4965,-0,2376745,0,2689615,1,225299E-05,3,4965,-0,9023575,3,4965,0,3504692,3,4965,-0,1329366
0,2694808,1,007095E-05,3,50325,-0,8459601,3,50325,0,04028382,3,50325,-0,2336462,0,2694808,1,426719E-05,3,50325,-0,9104142,3,50325,0,3504692,3,50325,-0,1329366
0,27,1,19173E-05,3,51,-0,8419318,3,51,0,03625543,3,51,-0,2336462,0,27,1,393149E-05,3,51,-0,9184711,3,51,0,3544976,3,51,-0,1329366
0,2705192,1,242084E-05,3,51675,-0,8459601,3,51675,0,03625543,3,51675,-0,2336462,0,2705192,1,15816E-05,3,51675,-0,9184711,3,51675,0,3504692,3,51675,-0,136965
0,2710385,1,09102E-05,3,5235,-0,8459601,3,5235,0,02819867,3,5235,-0,2336462,0,2710385,8,89601E-06,3,5235,-0,9184711,3,5235,0,3544976,3,5235,-0,1450217
0,2715577,8,224613E-06,3,53025,-0,8419318,3,53025,0,03222705,3,53025,-0,2296178,0,2715577,7,888914E-06,3,53025,-0,9224994,3,53025,0,3464408,3,53025,-0,1490501
0,2720769,6,378271E-06,3,537,-0,8499885,3,537,0,02819867,3,537,-0,2376745,0,2720769,7,888914E-06,3,537,-0,9224994,3,537,0,3464408,3,537,-0,1490501
0,2725962,7,888914E-06,3,54375,-0,8499885,3,54375,0,02819867,3,54375,-0,2296178,0,2725962,8,224613E-06,3,54375,-0,9224994,3,54375,0,3383841,3,54375,-0,1409934
0,2731154,1,05745E-05,3,5505,-0,8540169,3,5505,0,02819867,3,5505,-0,2336462,0,2731154,9,063859E-06,3,5505,-0,9184711,3,5505,0,3464408,3,5505,-0,1450217
0,2736346,1,19173E-05,3,55725,-0,8540169,3,55725,0,03625543,3,55725,-0,2296178,0,2736346,1,05745E-05,3,55725,-0,9224994,3,55725,0,3424124,3,55725,-0,1450217
0,2741539,1,19173E-05,3,564,-0,8580453,3,564,0,03625543,3,564,-0,2255894,0,2741539,1,02388E-05,3,564,-0,9224994,3,564,0,3504692,3,564,-0,1329366
0,2746731,1,19173E-05,3,57075,-0,8540169,3,57075,0,04028382,3,57075,-0,2255894,0,2746731,9,231708E-06,3,57075,-0,9265279,3,57075,0,3504692,3,57075,-0,1289082
0,2751923,1,141375E-05,3,5775,-0,8499885,3,5775,0,04028382,3,5775,-0,2255894,0,2751923,6,881819E-06,3,5775,-0,9224994,3,5775,0,358526,3,5775,-0,1289082
0,2757115,1,19173E-05,3,58425,-0,8540169,3,58425,0,04028382,3,58425,-0,221561,0,2757115,5,203327E-06,3,58425,-0,9184711,3,58425,0,358526,3,58425,-0,1248798
0,2762308,1,309224E-05,3,591,-0,8540169,3,591,0,03625543,3,591,-0,221561,0,2762308,7,721065E-06,3,591,-0,9224994,3,591,0,358526,3,591,-0,1248798
0,27675,1,225299E-05,3,59775,-0,8540169,3,59775,0,03625543,3,59775,-0,2255894,0,27675,1,09102E-05,3,59775,-0,9265279,3,59775,0,3544976,3,59775,-0,1289082
0,2772692,1,05745E-05,3,6045,-0,8499885,3,6045,0,03625543,3,6045,-0,2255894,0,2772692,1,107805E-05,3,6045,-0,9184711,3,6045,0,3544976,3,6045,-0,1248798
0,2777885,9,399557E-06,3,61125,-0,8459601,3,61125,0,03625543,3,61125,-0,2296178,0,2777885,1,05745E-05,3,61125,-0,9184711,3,61125,0,3464408,3,61125,-0,1289082
0,2783077,1,040665E-05,3,618,-0,8419318,3,618,0,03625543,3,618,-0,2296178,0,2783077,7,553216E-06,3,618,-0,9144427,3,618,0,3504692,3,618,-0,1329366
0,2788269,1,225299E-05,3,62475,-0,8459601,3,62475,0,03625543,3,62475,-0,2336462,0,2788269,4,867628E-06,3,62475,-0,9144427,3,62475,0,3504692,3,62475,-0,1289082
0,2793462,1,309224E-05,3,6315,-0,8419318,3,6315,0,03625543,3,6315,-0,2296178,0,2793462,7,888914E-06,3,6315,-0,9184711,3,6315,0,3424124,3,6315,-0,1450217
0,2798654,1,326009E-05,3,63825,-0,8459601,3,63825,0,04028382,3,63825,-0,2255894,0,2798654,1,02388E-05,3,63825,-0,9184711,3,63825,0,3424124,3,63825,-0,136965
0,2803846,1,258869E-05,3,645,-0,8459601,3,645,0,04028382,3,645,-0,2296178,0,2803846,1,02388E-05,3,645,-0,9224994,3,645,0,3504692,3,645,-0,1409934
0,2809038,9,231708E-06,3,65175,-0,8540169,3,65175,0,03625543,3,65175,-0,2255894,0,2809038,1,09102E-05,3,65175,-0,9265279,3,65175,0,358526,3,65175,-0,1490501
0,2814231,7,721065E-06,3,6585,-0,8540169,3,6585,0,03222705,3,6585,-0,2296178,0,2814231,1,242084E-05,3,6585,-0,9265279,3,6585,0,3504692,3,6585,-0,1450217
0,2819423,9,567407E-06,3,66525,-0,8580453,3,66525,0,03625543,3,66525,-0,2296178,0,2819423,1,19173E-05,3,66525,-0,9345846,3,66525,0,3625543,3,66525,-0,1409934
0,2824616,1,258869E-05,3,672,-0,8580453,3,672,0,03222705,3,672,-0,2296178,0,2824616,1,05745E-05,3,672,-0,9265279,3,672,0,3625543,3,672,-0,1409934
0,2829808,1,359579E-05,3,67875,-0,8620737,3,67875,0,04028382,3,67875,-0,2296178,0,2829808,1,007095E-05,3,67875,-0,9305562,3,67875,0,3665827,3,67875,-0,1409934
0,2835,1,292439E-05,3,6855,-0,866102,3,6855,0,02819867,3,6855,-0,2417029,0,2835,9,903106E-06,3,6855,-0,9265279,3,6855,0,3625543,3,6855,-0,136965
0,2840192,1,107805E-05,3,69225,-0,866102,3,69225,0,03222705,3,69225,-0,2376745,0,2840192,9,231708E-06,3,69225,-0,9224994,3,69225,0,358526,3,69225,-0,136965
0,2845385,1,19173E-05,3,699,-0,8620737,3,699,0,03625543,3,699,-0,2376745,0,2845385,9,567407E-06,3,699,-0,9184711,3,699,0,3504692,3,699,-0,1450217
0,2850577,1,376364E-05,3,70575,-0,8580453,3,70575,0,03625543,3,70575,-0,2376745,0,2850577,8,560311E-06,3,70575,-0,9144427,3,70575,0,3544976,3,70575,-0,1409934
0,2855769,1,275654E-05,3,7125,-0,8540169,3,7125,0,03222705,3,7125,-0,2376745,0,2855769,9,231708E-06,3,7125,-0,9144427,3,7125,0,3504692,3,7125,-0,1490501
0,2860962,1,09102E-05,3,71925,-0,8540169,3,71925,0,03625543,3,71925,-0,2336462,0,2860962,9,231708E-06,3,71925,-0,9144427,3,71925,0,3464408,3,71925,-0,1450217
0,2866154,1,09102E-05,3,726,-0,8459601,3,726,0,03625543,3,726,-0,2376745,0,2866154,8,728161E-06,3,726,-0,9144427,3,726,0,3504692,3,726,-0,1490501
0,2871346,1,258869E-05,3,73275,-0,8459601,3,73275,0,03625543,3,73275,-0,2376745,0,2871346,8,89601E-06,3,73275,-0,9184711,3,73275,0,3424124,3,73275,-0,1450217
0,2876539,1,493858E-05,3,7395,-0,8419318,3,7395,0,03625543,3,7395,-0,2376745,0,2876539,8,560311E-06,3,7395,-0,9184711,3,7395,0,3504692,3,7395,-0,1490501
0,2881731,1,460288E-05,3,74625,-0,8419318,3,74625,0,03222705,3,74625,-0,2255894,0,2881731,8,224613E-06,3,74625,-0,9224994,3,74625,0,3504692,3,74625,-0,1409934
0,2886923,1,225299E-05,3,753,-0,8459601,3,753,0,03222705,3,753,-0,2296178,0,2886923,7,888914E-06,3,753,-0,9224994,3,753,0,3544976,3,753,-0,136965
0,2892115,1,107805E-05,3,75975,-0,8459601,3,75975,0,03222705,3,75975,-0,221561,0,2892115,7,888914E-06,3,75975,-0,9224994,3,75975,0,3544976,3,75975,-0,136965
0,2897308,1,02388E-05,3,7665,-0,8419318,3,7665,0,03625543,3,7665,-0,221561,0,2897308,7,049668E-06,3,7665,-0,9224994,3,7665,0,3544976,3,7665,-0,1409934
0,29025,9,903106E-06,3,77325,-0,8419318,3,77325,0,03222705,3,77325,-0,2255894,0,29025,7,385367E-06,3,77325,-0,9184711,3,77325,0,358526,3,77325,-0,1329366
0,2907692,1,007095E-05,3,78,-0,8459601,3,78,0,03222705,3,78,-0,221561,0,2907692,7,888914E-06,3,78,-0,9144427,3,78,0,3544976,3,78,-0,1329366
0,2912885,9,399557E-06,3,78675,-0,8499885,3,78675,0,03222705,3,78675,-0,2255894,0,2912885,9,231708E-06,3,78675,-0,9063858,3,78675,0,3544976,3,78675,-0,1329366
0,2918077,7,888914E-06,3,7935,-0,8540169,3,7935,0,03222705,3,7935,-0,2255894,0,2918077,1,15816E-05,3,7935,-0,9144427,3,7935,0,3544976,3,7935,-0,1289082
0,2923269,8,89601E-06,3,80025,-0,8540169,3,80025,0,03222705,3,80025,-0,2255894,0,2923269,1,040665E-05,3,80025,-0,9184711,3,80025,0,3504692,3,80025,-0,1248798
0,2928461,1,05745E-05,3,807,-0,8540169,3,807,0,03625543,3,807,-0,2255894,0,2928461,8,224613E-06,3,807,-0,9224994,3,807,0,3464408,3,807,-0,1329366
0,2933654,1,242084E-05,3,81375,-0,866102,3,81375,0,03625543,3,81375,-0,2175326,0,2933654,8,224613E-06,3,81375,-0,9224994,3,81375,0,3424124,3,81375,-0,1329366
0,2938846,1,409934E-05,3,8205,-0,8540169,3,8205,0,03625543,3,8205,-0,2255894,0,2938846,8,224613E-06,3,8205,-0,9265279,3,8205,0,3504692,3,8205,-0,136965
0,2944039,1,225299E-05,3,82725,-0,8540169,3,82725,0,03625543,3,82725,-0,221561,0,2944039,8,224613E-06,3,82725,-0,9265279,3,82725,0,3464408,3,82725,-0,1329366
0,2949231,9,903106E-06,3,834,-0,8499885,3,834,0,04028382,3,834,-0,2296178,0,2949231,5,874724E-06,3,834,-0,9305562,3,834,0,3424124,3,834,-0,1329366
0,2954423,9,567407E-06,3,84075,-0,8540169,3,84075,0,03625543,3,84075,-0,2296178,0,2954423,5,539025E-06,3,84075,-0,9305562,3,84075,0,3424124,3,84075,-0,1329366
0,2959615,9,231708E-06,3,8475,-0,8499885,3,8475,0,04834058,3,8475,-0,2255894,0,2959615,7,888914E-06,3,8475,-0,9305562,3,8475,0,3464408,3,8475,-0,1329366
0,2964808,9,735257E-06,3,85425,-0,8459601,3,85425,0,04834058,3,85425,-0,221561,0,2964808,1,05745E-05,3,85425,-0,9265279,3,85425,0,3464408,3,85425,-0,1329366
0,297,1,040665E-05,3,861,-0,8419318,3,861,0,04028382,3,861,-0,221561,0,297,1,040665E-05,3,861,-0,9184711,3,861,0,3544976,3,861,-0,1329366
0,2975192,9,735257E-06,3,86775,-0,8459601,3,86775,0,04028382,3,86775,-0,2296178,0,2975192,8,89601E-06,3,86775,-0,9144427,3,86775,0,3464408,3,86775,-0,1329366
0,2980385,8,224613E-06,3,8745,-0,8499885,3,8745,0,02819867,3,8745,-0,2336462,0,2980385,7,721065E-06,3,8745,-0,9144427,3,8745,0,3544976,3,8745,-0,136965
0,2985577,7,553216E-06,3,88125,-0,8580453,3,88125,0,02014191,3,88125,-0,2336462,0,2985577,8,056764E-06,3,88125,-0,9184711,3,88125,0,358526,3,88125,-0,1289082
0,2990769,8,224613E-06,3,888,-0,8499885,3,888,0,02014191,3,888,-0,2255894,0,2990769,8,224613E-06,3,888,-0,9184711,3,888,0,3625543,3,888,-0,1248798
0,2995962,9,903106E-06,3,89475,-0,8499885,3,89475,0,02417029,3,89475,-0,2255894,0,2995962,7,888914E-06,3,89475,-0,9224994,3,89475,0,3625543,3,89475,-0,1248798
0,3001154,1,09102E-05,3,9015,-0,8540169,3,9015,0,02417029,3,9015,-0,2175326,0,3001154,9,063859E-06,3,9015,-0,9144427,3,9015,0,358526,3,9015,-0,1329366
0,3006346,8,224613E-06,3,90825,-0,8499885,3,90825,0,03222705,3,90825,-0,2175326,0,3006346,9,567407E-06,3,90825,-0,9265279,3,90825,0,3544976,3,90825,-0,1329366
0,3011538,6,71397E-06,3,915,-0,8540169,3,915,0,03625543,3,915,-0,2094758,0,3011538,1,040665E-05,3,915,-0,9224994,3,915,0,3504692,3,915,-0,1409934
0,3016731,7,049668E-06,3,92175,-0,8540169,3,92175,0,0443122,3,92175,-0,2175326,0,3016731,1,15816E-05,3,92175,-0,9224994,3,92175,0,3504692,3,92175,-0,1450217
0,3021923,7,553216E-06,3,9285,-0,8459601,3,9285,0,03625543,3,9285,-0,2296178,0,3021923,1,05745E-05,3,9285,-0,9265279,3,9285,0,3504692,3,9285,-0,1571069
0,3027115,9,567407E-06,3,93525,-0,8540169,3,93525,0,03222705,3,93525,-0,2336462,0,3027115,9,903106E-06,3,93525,-0,9184711,3,93525,0,3544976,3,93525,-0,1450217
0,3032308,1,19173E-05,3,942,-0,866102,3,942,0,03222705,3,942,-0,2457313,0,3032308,9,903106E-06,3,942,-0,9265279,3,942,0,358526,3,942,-0,1450217
0,30375,1,292439E-05,3,94875,-0,8620737,3,94875,0,03222705,3,94875,-0,2417029,0,30375,9,735257E-06,3,94875,-0,9265279,3,94875,0,3625543,3,94875,-0,136965
0,3042692,1,359579E-05,3,9555,-0,8580453,3,9555,0,02819867,3,9555,-0,2457313,0,3042692,7,888914E-06,3,9555,-0,9345846,3,9555,0,3544976,3,9555,-0,1409934
0,3047885,1,05745E-05,3,96225,-0,8580453,3,96225,0,03625543,3,96225,-0,2336462,0,3047885,6,881819E-06,3,96225,-0,9386129,3,96225,0,358526,3,96225,-0,1289082
0,3053077,9,231708E-06,3,969,-0,8620737,3,969,0,03222705,3,969,-0,2296178,0,3053077,7,888914E-06,3,969,-0,9345846,3,969,0,3544976,3,969,-0,136965
0,3058269,1,05745E-05,3,97575,-0,8540169,3,97575,0,03222705,3,97575,-0,221561,0,3058269,9,735257E-06,3,97575,-0,9265279,3,97575,0,3544976,3,97575,-0,1329366
0,3063461,1,326009E-05,3,9825,-0,8540169,3,9825,0,03222705,3,9825,-0,221561,0,3063461,1,19173E-05,3,9825,-0,9265279,3,9825,0,3504692,3,9825,-0,136965
0,3068654,1,460288E-05,3,98925,-0,8459601,3,98925,0,04028382,3,98925,-0,2175326,0,3068654,1,426719E-05,3,98925,-0,9144427,3,98925,0,3464408,3,98925,-0,1409934
0,3073846,1,393149E-05,3,996,-0,8419318,3,996,0,0443122,3,996,-0,2255894,0,3073846,1,393149E-05,3,996,-0,9104142,3,996,0,3464408,3,996,-0,1409934
0,3079039,1,275654E-05,4,00275,-0,8459601,4,00275,0,04834058,4,00275,-0,2255894,0,3079039,1,208515E-05,4,00275,-0,9104142,4,00275,0,3424124,4,00275,-0,136965
0,3084231,1,292439E-05,4,0095,-0,8459601,4,0095,0,0443122,4,0095,-0,2296178,0,3084231,1,12459E-05,4,0095,-0,9063858,4,0095,0,3464408,4,0095,-0,136965
0,3089423,1,460288E-05,4,01625,-0,8499885,4,01625,0,03625543,4,01625,-0,2296178,0,3089423,1,12459E-05,4,01625,-0,9063858,4,01625,0,3464408,4,01625,-0,1450217
0,3094615,1,628138E-05,4,023,-0,8499885,4,023,0,04028382,4,023,-0,2296178,0,3094615,1,05745E-05,4,023,-0,9144427,4,023,0,3504692,4,023,-0,1329366
0,3099808,1,594568E-05,4,02975,-0,8499885,4,02975,0,03625543,4,02975,-0,2336462,0,3099808,1,05745E-05,4,02975,-0,9184711,4,02975,0,3504692,4,02975,-0,136965
0,3105,1,577783E-05,4,0365,-0,8499885,4,0365,0,03222705,4,0365,-0,2376745,0,3105,1,107805E-05,4,0365,-0,9144427,4,0365,0,3504692,4,0365,-0,1409934
0,3110192,1,393149E-05,4,04325,-0,8459601,4,04325,0,03222705,4,04325,-0,2376745,0,3110192,1,05745E-05,4,04325,-0,9224994,4,04325,0,3504692,4,04325,-0,136965
0,3115385,1,309224E-05,4,05,-0,8499885,4,05,0,02819867,4,05,-0,2417029,0,3115385,8,89601E-06,4,05,-0,9184711,4,05,0,3464408,4,05,-0,1490501
0,3120577,1,19173E-05,4,05675,-0,8459601,4,05675,0,02819867,4,05675,-0,2336462,0,3120577,8,224613E-06,4,05675,-0,9265279,4,05675,0,3504692,4,05675,-0,1450217
0,3125769,1,05745E-05,4,0635,-0,8540169,4,0635,0,02417029,4,0635,-0,2296178,0,3125769,8,728161E-06,4,0635,-0,9224994,4,0635,0,3504692,4,0635,-0,1571069
0,3130962,1,12459E-05,4,07025,-0,8540169,4,07025,0,02819867,4,07025,-0,2336462,0,3130962,7,553216E-06,4,07025,-0,9224994,4,07025,0,3464408,4,07025,-0,1490501
0,3136154,1,19173E-05,4,077,-0,8540169,4,077,0,02819867,4,077,-0,2336462,0,3136154,4,531929E-06,4,077,-0,9224994,4,077,0,3464408,4,077,-0,1490501
0,3141346,1,12459E-05,4,08375,-0,8499885,4,08375,0,04028382,4,08375,-0,2296178,0,3141346,5,706875E-06,4,08375,-0,9184711,4,08375,0,3544976,4,08375,-0,1409934
0,3146538,9,231708E-06,4,0905,-0,8499885,4,0905,0,03625543,4,0905,-0,2296178,0,3146538,9,231708E-06,4,0905,-0,9144427,4,0905,0,358526,4,0905,-0,136965
0,3151731,8,224613E-06,4,09725,-0,8499885,4,09725,0,03625543,4,09725,-0,221561,0,3151731,1,107805E-05,4,09725,-0,9184711,4,09725,0,3665827,4,09725,-0,1329366
0,3156923,9,231708E-06,4,104,-0,8499885,4,104,0,03625543,4,104,-0,2175326,0,3156923,8,560311E-06,4,104,-0,9144427,4,104,0,3625543,4,104,-0,1289082
0,3162116,1,208515E-05,4,11075,-0,8499885,4,11075,0,03222705,4,11075,-0,2135042,0,3162116,6,210422E-06,4,11075,-0,9184711,4,11075,0,3706111,4,11075,-0,1248798
0,3167308,1,292439E-05,4,1175,-0,8540169,4,1175,0,02819867,4,1175,-0,2175326,0,3167308,5,706875E-06,4,1175,-0,9144427,4,1175,0,3625543,4,1175,-0,1289082
0,31725,1,208515E-05,4,12425,-0,8540169,4,12425,0,02417029,4,12425,-0,221561,0,31725,4,196231E-06,4,12425,-0,9144427,4,12425,0,3665827,4,12425,-0,1289082
0,3177692,1,174945E-05,4,131,-0,8580453,4,131,0,02417029,4,131,-0,2255894,0,3177692,2,349889E-06,4,131,-0,9184711,4,131,0,358526,4,131,-0,1409934
0,3182885,1,107805E-05,4,13775,-0,8580453,4,13775,0,02819867,4,13775,-0,2255894,0,3182885,3,524834E-06,4,13775,-0,9144427,4,13775,0,358526,4,13775,-0,1329366
0,3188077,1,107805E-05,4,1445,-0,8540169,4,1445,0,02819867,4,1445,-0,2296178,0,3188077,4,531929E-06,4,1445,-0,9184711,4,1445,0,3544976,4,1445,-0,136965
0,3193269,1,09102E-05,4,15125,-0,8540169,4,15125,0,02819867,4,15125,-0,2296178,0,3193269,6,210422E-06,4,15125,-0,9265279,4,15125,0,358526,4,15125,-0,1329366
0,3198462,1,007095E-05,4,158,-0,8459601,4,158,0,03222705,4,158,-0,2296178,0,3198462,5,203327E-06,4,158,-0,9305562,4,158,0,3544976,4,158,-0,1409934
0,3203654,9,903106E-06,4,16475,-0,8540169,4,16475,0,03222705,4,16475,-0,2296178,0,3203654,3,189135E-06,4,16475,-0,9305562,4,16475,0,3464408,4,16475,-0,1450217
0,3208846,9,399557E-06,4,1715,-0,8540169,4,1715,0,03625543,4,1715,-0,2376745,0,3208846,3,860533E-06,4,1715,-0,9305562,4,1715,0,3424124,4,1715,-0,1490501
0,3214039,7,888914E-06,4,17825,-0,8580453,4,17825,0,04028382,4,17825,-0,2376745,0,3214039,4,867628E-06,4,17825,-0,9305562,4,17825,0,3464408,4,17825,-0,1490501
0,3219231,7,217517E-06,4,185,-0,8540169,4,185,0,04028382,4,185,-0,2417029,0,3219231,5,539025E-06,4,185,-0,9305562,4,185,0,3464408,4,185,-0,1530785
0,3224423,8,728161E-06,4,19175,-0,8580453,4,19175,0,03625543,4,19175,-0,2417029,0,3224423,7,553216E-06,4,19175,-0,9265279,4,19175,0,3504692,4,19175,-0,1450217
0,3229615,7,553216E-06,4,1985,-0,8540169,4,1985,0,04028382,4,1985,-0,2376745,0,3229615,9,063859E-06,4,1985,-0,9224994,4,1985,0,3464408,4,1985,-0,1490501
0,3234808,6,210422E-06,4,20525,-0,8540169,4,20525,0,03625543,4,20525,-0,2336462,0,3234808,1,05745E-05,4,20525,-0,9265279,4,20525,0,3504692,4,20525,-0,136965
0,324,9,231708E-06,4,212,-0,8499885,4,212,0,03222705,4,212,-0,2336462,0,324,1,258869E-05,4,212,-0,9144427,4,212,0,3504692,4,212,-0,136965
0,3245192,1,326009E-05,4,21875,-0,8499885,4,21875,0,03625543,4,21875,-0,2255894,0,3245192,1,359579E-05,4,21875,-0,9104142,4,21875,0,3544976,4,21875,-0,1329366
0,3250385,1,426719E-05,4,2255,-0,8499885,4,2255,0,03625543,4,2255,-0,2296178,0,3250385,1,258869E-05,4,2255,-0,9184711,4,2255,0,3544976,4,2255,-0,1409934
0,3255577,1,19173E-05,4,23225,-0,8499885,4,23225,0,03222705,4,23225,-0,2255894,0,3255577,1,242084E-05,4,23225,-0,9144427,4,23225,0,3625543,4,23225,-0,1248798
0,3260769,1,040665E-05,4,239,-0,8499885,4,239,0,03222705,4,239,-0,2255894,0,3260769,1,15816E-05,4,239,-0,9144427,4,239,0,3665827,4,239,-0,1329366
0,3265962,1,225299E-05,4,24575,-0,8540169,4,24575,0,02417029,4,24575,-0,2255894,0,3265962,9,231708E-06,4,24575,-0,9184711,4,24575,0,3665827,4,24575,-0,136965
0,3271154,1,426719E-05,4,2525,-0,8540169,4,2525,0,02819867,4,2525,-0,221561,0,3271154,9,231708E-06,4,2525,-0,9184711,4,2525,0,3625543,4,2525,-0,136965
0,3276346,1,258869E-05,4,25925,-0,8499885,4,25925,0,02417029,4,25925,-0,2175326,0,3276346,1,510643E-05,4,25925,-0,9184711,4,25925,0,3625543,4,25925,-0,1409934
0,3281538,9,903106E-06,4,266,-0,8499885,4,266,0,02014191,4,266,-0,221561,0,3281538,1,896696E-05,4,266,-0,9224994,4,266,0,358526,4,266,-0,1409934
0,3286731,8,560311E-06,4,27275,-0,8499885,4,27275,0,02417029,4,27275,-0,2255894,0,3286731,1,678492E-05,4,27275,-0,9184711,4,27275,0,358526,4,27275,-0,1409934
0,3291923,8,392462E-06,4,2795,-0,8540169,4,2795,0,02819867,4,2795,-0,2255894,0,3291923,1,19173E-05,4,2795,-0,9265279,4,2795,0,3464408,4,2795,-0,1409934
0,3297116,9,231708E-06,4,28625,-0,8499885,4,28625,0,03222705,4,28625,-0,221561,0,3297116,8,560311E-06,4,28625,-0,9265279,4,28625,0,3464408,4,28625,-0,1409934
0,3302308,9,231708E-06,4,293,-0,8540169,4,293,0,03222705,4,293,-0,2255894,0,3302308,7,553216E-06,4,293,-0,9224994,4,293,0,3504692,4,293,-0,136965
0,33075,7,721065E-06,4,29975,-0,8540169,4,29975,0,03625543,4,29975,-0,2296178,0,33075,5,874724E-06,4,29975,-0,9265279,4,29975,0,3464408,4,29975,-0,136965
0,3312692,7,217517E-06,4,3065,-0,8540169,4,3065,0,03222705,4,3065,-0,2296178,0,3312692,4,867628E-06,4,3065,-0,9224994,4,3065,0,3544976,4,3065,-0,136965
0,3317885,7,888914E-06,4,31325,-0,8499885,4,31325,0,03222705,4,31325,-0,2296178,0,3317885,7,888914E-06,4,31325,-0,9305562,4,31325,0,3544976,4,31325,-0,1329366
0,3323077,7,888914E-06,4,32,-0,8459601,4,32,0,03625543,4,32,-0,2296178,0,3323077,1,05745E-05,4,32,-0,9224994,4,32,0,3544976,4,32,-0,1329366
0,3328269,7,049668E-06,4,32675,-0,8499885,4,32675,0,03222705,4,32675,-0,2255894,0,3328269,1,05745E-05,4,32675,-0,9184711,4,32675,0,3544976,4,32675,-0,1289082
0,3333462,5,706875E-06,4,3335,-0,8540169,4,3335,0,03625543,4,3335,-0,2296178,0,3333462,9,903106E-06,4,3335,-0,9184711,4,3335,0,3504692,4,3335,-0,1329366
0,3338654,5,203327E-06,4,34025,-0,8540169,4,34025,0,04028382,4,34025,-0,2255894,0,3338654,7,217517E-06,4,34025,-0,9224994,4,34025,0,3464408,4,34025,-0,136965
0,3343846,5,539025E-06,4,347,-0,8499885,4,347,0,03625543,4,347,-0,2336462,0,3343846,6,881819E-06,4,347,-0,9224994,4,347,0,3504692,4,347,-0,136965
0,3349038,6,378271E-06,4,35375,-0,8499885,4,35375,0,03625543,4,35375,-0,2336462,0,3349038,7,888914E-06,4,35375,-0,9224994,4,35375,0,3504692,4,35375,-0,136965
0,3354231,1,05745E-05,4,3605,-0,8499885,4,3605,0,03625543,4,3605,-0,2296178,0,3354231,7,721065E-06,4,3605,-0,9265279,4,3605,0,3464408,4,3605,-0,1409934
0,3359423,1,745632E-05,4,36725,-0,8499885,4,36725,0,03222705,4,36725,-0,2336462,0,3359423,7,553216E-06,4,36725,-0,9265279,4,36725,0,3424124,4,36725,-0,1409934
0,3364615,1,829557E-05,4,374,-0,8540169,4,374,0,03222705,4,374,-0,2336462,0,3364615,7,553216E-06,4,374,-0,9265279,4,374,0,3464408,4,374,-0,1329366
0,3369808,1,560998E-05,4,38075,-0,8580453,4,38075,0,03222705,4,38075,-0,2336462,0,3369808,6,210422E-06,4,38075,-0,9345846,4,38075,0,3504692,4,38075,-0,1450217
0,3375,1,376364E-05,4,3875,-0,8459601,4,3875,0,03625543,4,3875,-0,2296178,0,3375,5,874724E-06,4,3875,-0,9265279,4,3875,0,3504692,4,3875,-0,1409934
0,3380192,1,359579E-05,4,39425,-0,8540169,4,39425,0,04028382,4,39425,-0,221561,0,3380192,7,385367E-06,4,39425,-0,9305562,4,39425,0,3504692,4,39425,-0,1409934
0,3385385,1,493858E-05,4,401,-0,8499885,4,401,0,03625543,4,401,-0,221561,0,3385385,9,567407E-06,4,401,-0,9184711,4,401,0,3504692,4,401,-0,1490501
0,3390577,1,359579E-05,4,40775,-0,8580453,4,40775,0,02819867,4,40775,-0,2255894,0,3390577,9,399557E-06,4,40775,-0,9265279,4,40775,0,3504692,4,40775,-0,136965
0,3395769,1,141375E-05,4,4145,-0,8580453,4,4145,0,02819867,4,4145,-0,2336462,0,3395769,8,392462E-06,4,4145,-0,9224994,4,4145,0,358526,4,4145,-0,1409934
0,3400961,1,174945E-05,4,42125,-0,8540169,4,42125,0,02014191,4,42125,-0,2296178,0,3400961,8,560311E-06,4,42125,-0,9265279,4,42125,0,3625543,4,42125,-0,1450217
0,3406154,1,225299E-05,4,428,-0,8499885,4,428,0,02819867,4,428,-0,2255894,0,3406154,7,049668E-06,4,428,-0,9265279,4,428,0,3625543,4,428,-0,1329366
0,3411346,1,292439E-05,4,43475,-0,8459601,4,43475,0,03222705,4,43475,-0,2255894,0,3411346,7,049668E-06,4,43475,-0,9184711,4,43475,0,358526,4,43475,-0,1329366
0,3416539,1,376364E-05,4,4415,-0,8419318,4,4415,0,03625543,4,4415,-0,2175326,0,3416539,7,217517E-06,4,4415,-0,9184711,4,4415,0,3544976,4,4415,-0,1289082
0,3421731,1,309224E-05,4,44825,-0,8459601,4,44825,0,03625543,4,44825,-0,2175326,0,3421731,6,881819E-06,4,44825,-0,9144427,4,44825,0,3504692,4,44825,-0,136965
0,3426923,1,02388E-05,4,455,-0,8499885,4,455,0,03625543,4,455,-0,2255894,0,3426923,6,042573E-06,4,455,-0,9184711,4,455,0,3464408,4,455,-0,1329366
0,3432115,8,560311E-06,4,46175,-0,8459601,4,46175,0,04028382,4,46175,-0,221561,0,3432115,5,035477E-06,4,46175,-0,9224994,4,46175,0,3424124,4,46175,-0,136965
0,3437308,9,231708E-06,4,4685,-0,8580453,4,4685,0,03625543,4,4685,-0,2336462,0,3437308,2,517739E-06,4,4685,-0,9184711,4,4685,0,3504692,4,4685,-0,1450217
0,34425,1,12459E-05,4,47525,-0,8580453,4,47525,0,03222705,4,47525,-0,2336462,0,34425,2,517739E-06,4,47525,-0,9224994,4,47525,0,3544976,4,47525,-0,1450217
0,3447692,1,242084E-05,4,482,-0,8499885,4,482,0,03222705,4,482,-0,2376745,0,3447692,3,860533E-06,4,482,-0,9265279,4,482,0,3544976,4,482,-0,1409934
0,3452885,1,05745E-05,4,48875,-0,8499885,4,48875,0,03222705,4,48875,-0,2336462,0,3452885,4,867628E-06,4,48875,-0,9305562,4,48875,0,3625543,4,48875,-0,136965
0,3458077,1,12459E-05,4,4955,-0,8580453,4,4955,0,03222705,4,4955,-0,2336462,0,3458077,4,531929E-06,4,4955,-0,9345846,4,4955,0,3544976,4,4955,-0,1329366
0,3463269,1,326009E-05,4,50225,-0,8580453,4,50225,0,03625543,4,50225,-0,2255894,0,3463269,3,524834E-06,4,50225,-0,9345846,4,50225,0,3625543,4,50225,-0,1329366
0,3468462,1,393149E-05,4,509,-0,8620737,4,509,0,03222705,4,509,-0,221561,0,3468462,3,189135E-06,4,509,-0,9426414,4,509,0,358526,4,509,-0,1329366
0,3473654,1,443503E-05,4,51575,-0,8540169,4,51575,0,03222705,4,51575,-0,2255894,0,3473654,3,860533E-06,4,51575,-0,9305562,4,51575,0,358526,4,51575,-0,136965
0,3478846,1,326009E-05,4,5225,-0,8540169,4,5225,0,03625543,4,5225,-0,221561,0,3478846,2,517739E-06,4,5225,-0,9224994,4,5225,0,3544976,4,5225,-0,1450217
0,3484038,1,15816E-05,4,52925,-0,8499885,4,52925,0,03625543,4,52925,-0,2175326,0,3484038,2,18204E-06,4,52925,-0,9184711,4,52925,0,3504692,4,52925,-0,1450217
0,3489231,1,174945E-05,4,536,-0,8459601,4,536,0,03222705,4,536,-0,2255894,0,3489231,4,196231E-06,4,536,-0,9063858,4,536,0,3464408,4,536,-0,1409934
0,3494423,1,174945E-05,4,54275,-0,8499885,4,54275,0,03625543,4,54275,-0,2296178,0,3494423,5,874724E-06,4,54275,-0,9063858,4,54275,0,3504692,4,54275,-0,1289082
0,3499615,1,12459E-05,4,5495,-0,8499885,4,5495,0,03222705,4,5495,-0,2296178,0,3499615,7,385367E-06,4,5495,-0,9063858,4,5495,0,3464408,4,5495,-0,1409934
0,3504808,1,12459E-05,4,55625,-0,8499885,4,55625,0,03222705,4,55625,-0,2296178,0,3504808,8,728161E-06,4,55625,-0,9144427,4,55625,0,3424124,4,55625,-0,136965
0,351,1,258869E-05,4,563,-0,8499885,4,563,0,03625543,4,563,-0,2376745,0,351,8,89601E-06,4,563,-0,9104142,4,563,0,3383841,4,563,-0,1450217
0,3515192,1,309224E-05,4,56975,-0,8419318,4,56975,0,04028382,4,56975,-0,2417029,0,3515192,9,903106E-06,4,56975,-0,9144427,4,56975,0,3343557,4,56975,-0,1409934
0,3520385,1,326009E-05,4,5765,-0,8459601,4,5765,0,03625543,4,5765,-0,2376745,0,3520385,1,02388E-05,4,5765,-0,9184711,4,5765,0,3383841,4,5765,-0,136965
0,3525577,1,393149E-05,4,58325,-0,8419318,4,58325,0,04028382,4,58325,-0,2376745,0,3525577,1,05745E-05,4,58325,-0,9224994,4,58325,0,3464408,4,58325,-0,1450217
0,3530769,1,258869E-05,4,59,-0,8459601,4,59,0,04028382,4,59,-0,2376745,0,3530769,1,443503E-05,4,59,-0,9265279,4,59,0,3464408,4,59,-0,1490501
0,3535962,1,040665E-05,4,59675,-0,8459601,4,59675,0,04028382,4,59675,-0,2296178,0,3535962,1,460288E-05,4,59675,-0,9265279,4,59675,0,3464408,4,59675,-0,1409934
0,3541154,1,040665E-05,4,6035,-0,8499885,4,6035,0,03625543,4,6035,-0,2336462,0,3541154,1,309224E-05,4,6035,-0,9184711,4,6035,0,3544976,4,6035,-0,1450217
0,3546346,1,15816E-05,4,61025,-0,8499885,4,61025,0,03625543,4,61025,-0,2336462,0,3546346,1,326009E-05,4,61025,-0,9224994,4,61025,0,3544976,4,61025,-0,1450217
0,3551539,1,326009E-05,4,617,-0,8540169,4,617,0,02819867,4,617,-0,2255894,0,3551539,1,242084E-05,4,617,-0,9144427,4,617,0,3544976,4,617,-0,1450217
0,3556731,1,376364E-05,4,62375,-0,8540169,4,62375,0,03625543,4,62375,-0,2255894,0,3556731,1,05745E-05,4,62375,-0,9265279,4,62375,0,3665827,4,62375,-0,1329366
0,3561923,1,05745E-05,4,6305,-0,8499885,4,6305,0,03222705,4,6305,-0,221561,0,3561923,9,567407E-06,4,6305,-0,9224994,4,6305,0,3625543,4,6305,-0,136965
0,3567115,6,881819E-06,4,63725,-0,8580453,4,63725,0,02819867,4,63725,-0,221561,0,3567115,9,735257E-06,4,63725,-0,9184711,4,63725,0,3625543,4,63725,-0,136965
0,3572308,8,224613E-06,4,644,-0,8499885,4,644,0,02819867,4,644,-0,2175326,0,3572308,1,15816E-05,4,644,-0,9224994,4,644,0,358526,4,644,-0,1329366
0,35775,1,292439E-05,4,65075,-0,8540169,4,65075,0,02819867,4,65075,-0,2135042,0,35775,1,05745E-05,4,65075,-0,9184711,4,65075,0,358526,4,65075,-0,136965
0,3582692,1,426719E-05,4,6575,-0,8499885,4,6575,0,02417029,4,6575,-0,2175326,0,3582692,7,888914E-06,4,6575,-0,9184711,4,6575,0,3544976,4,6575,-0,136965
0,3587885,1,19173E-05,4,66425,-0,8580453,4,66425,0,02819867,4,66425,-0,2175326,0,3587885,6,042573E-06,4,66425,-0,9224994,4,66425,0,3504692,4,66425,-0,1329366
0,3593077,1,225299E-05,4,671,-0,8540169,4,671,0,03222705,4,671,-0,221561,0,3593077,7,217517E-06,4,671,-0,9224994,4,671,0,3504692,4,671,-0,1409934
0,3598269,1,443503E-05,4,67775,-0,8540169,4,67775,0,03222705,4,67775,-0,2255894,0,3598269,7,888914E-06,4,67775,-0,9224994,4,67775,0,3464408,4,67775,-0,1409934
0,3603462,1,493858E-05,4,6845,-0,8540169,4,6845,0,02819867,4,6845,-0,2336462,0,3603462,7,049668E-06,4,6845,-0,9265279,4,6845,0,3544976,4,6845,-0,1450217
0,3608654,1,292439E-05,4,69125,-0,8540169,4,69125,0,03222705,4,69125,-0,2376745,0,3608654,6,210422E-06,4,69125,-0,9305562,4,69125,0,3504692,4,69125,-0,1409934
0,3613846,9,567407E-06,4,698,-0,8499885,4,698,0,03222705,4,698,-0,2336462,0,3613846,5,874724E-06,4,698,-0,9265279,4,698,0,3504692,4,698,-0,1490501
0,3619038,6,210422E-06,4,70475,-0,8499885,4,70475,0,03625543,4,70475,-0,2296178,0,3619038,6,54612E-06,4,70475,-0,9265279,4,70475,0,3504692,4,70475,-0,1450217
0,3624231,6,042573E-06,4,7115,-0,8419318,4,7115,0,03625543,4,7115,-0,2296178,0,3624231,5,874724E-06,4,7115,-0,9265279,4,7115,0,3544976,4,7115,-0,1450217
0,3629423,8,560311E-06,4,71825,-0,8459601,4,71825,0,03625543,4,71825,-0,2296178,0,3629423,3,189135E-06,4,71825,-0,9144427,4,71825,0,3504692,4,71825,-0,1450217
0,3634616,1,02388E-05,4,725,-0,8459601,4,725,0,03625543,4,725,-0,2296178,0,3634616,2,853437E-06,4,725,-0,9184711,4,725,0,3504692,4,725,-0,1409934
0,3639808,1,05745E-05,4,73175,-0,8459601,4,73175,0,03625543,4,73175,-0,2376745,0,3639808,2,517739E-06,4,73175,-0,9144427,4,73175,0,3424124,4,73175,-0,1450217
0,3645,1,007095E-05,4,7385,-0,8499885,4,7385,0,03222705,4,7385,-0,2296178,0,3645,2,517739E-06,4,7385,-0,9144427,4,7385,0,3464408,4,7385,-0,1409934
0,3650192,9,231708E-06,4,74525,-0,8580453,4,74525,0,03625543,4,74525,-0,2376745,0,3650192,6,713969E-07,4,74525,-0,9144427,4,74525,0,3424124,4,74525,-0,136965
0,3655385,1,040665E-05,4,752,-0,8540169,4,752,0,03222705,4,752,-0,2296178,0,3655385,1,846342E-06,4,752,-0,9184711,4,752,0,3504692,4,752,-0,136965
0,3660577,9,903106E-06,4,75875,-0,8580453,4,75875,0,03625543,4,75875,-0,2296178,0,3660577,6,54612E-06,4,75875,-0,9144427,4,75875,0,3504692,4,75875,-0,136965
0,3665769,7,888914E-06,4,7655,-0,8499885,4,7655,0,03222705,4,7655,-0,2336462,0,3665769,9,231708E-06,4,7655,-0,9224994,4,7655,0,3544976,4,7655,-0,1490501
0,3670962,8,392462E-06,4,77225,-0,8459601,4,77225,0,03625543,4,77225,-0,2296178,0,3670962,7,888914E-06,4,77225,-0,9265279,4,77225,0,358526,4,77225,-0,1409934
0,3676154,1,02388E-05,4,779,-0,8459601,4,779,0,03625543,4,779,-0,2255894,0,3676154,7,888914E-06,4,779,-0,9224994,4,779,0,358526,4,779,-0,1409934
0,3681346,1,02388E-05,4,78575,-0,8499885,4,78575,0,03625543,4,78575,-0,2255894,0,3681346,8,560311E-06,4,78575,-0,9265279,4,78575,0,3625543,4,78575,-0,1490501
0,3686539,8,89601E-06,4,7925,-0,8499885,4,7925,0,03222705,4,7925,-0,2296178,0,3686539,1,09102E-05,4,7925,-0,9265279,4,7925,0,358526,4,7925,-0,1490501
0,3691731,5,874724E-06,4,79925,-0,8499885,4,79925,0,03222705,4,79925,-0,2255894,0,3691731,1,05745E-05,4,79925,-0,9144427,4,79925,0,358526,4,79925,-0,1409934
0,3696923,5,203327E-06,4,806,-0,8499885,4,806,0,02417029,4,806,-0,2255894,0,3696923,8,392462E-06,4,806,-0,9184711,4,806,0,3544976,4,806,-0,1409934
0,3702115,7,888914E-06,4,81275,-0,8499885,4,81275,0,02819867,4,81275,-0,2255894,0,3702115,7,217517E-06,4,81275,-0,9184711,4,81275,0,3544976,4,81275,-0,136965
0,3707308,9,735257E-06,4,8195,-0,8540169,4,8195,0,02819867,4,8195,-0,221561,0,3707308,6,378271E-06,4,8195,-0,9224994,4,8195,0,3504692,4,8195,-0,1329366
0,37125,9,231708E-06,4,82625,-0,8540169,4,82625,0,03222705,4,82625,-0,221561,0,37125,6,54612E-06,4,82625,-0,9224994,4,82625,0,3504692,4,82625,-0,1289082
0,3717692,9,063859E-06,4,833,-0,8499885,4,833,0,02819867,4,833,-0,2255894,0,3717692,6,71397E-06,4,833,-0,9305562,4,833,0,3464408,4,833,-0,1289082
0,3722885,8,560311E-06,4,83975,-0,8499885,4,83975,0,03222705,4,83975,-0,221561,0,3722885,1,09102E-05,4,83975,-0,9224994,4,83975,0,3464408,4,83975,-0,1329366
0,3728077,6,881819E-06,4,8465,-0,8499885,4,8465,0,03625543,4,8465,-0,221561,0,3728077,1,460288E-05,4,8465,-0,9265279,4,8465,0,3464408,4,8465,-0,1289082
0,3733269,7,217517E-06,4,85325,-0,8499885,4,85325,0,03625543,4,85325,-0,2175326,0,3733269,1,15816E-05,4,85325,-0,9184711,4,85325,0,3544976,4,85325,-0,1289082
0,3738461,1,040665E-05,4,86,-0,8540169,4,86,0,03625543,4,86,-0,221561,0,3738461,1,007095E-05,4,86,-0,9224994,4,86,0,3504692,4,86,-0,1289082
0,3743654,1,09102E-05,4,86675,-0,8499885,4,86675,0,03625543,4,86675,-0,2255894,0,3743654,1,426719E-05,4,86675,-0,9184711,4,86675,0,3504692,4,86675,-0,1329366
0,3748846,9,567407E-06,4,8735,-0,8580453,4,8735,0,03625543,4,8735,-0,221561,0,3748846,1,527428E-05,4,8735,-0,9184711,4,8735,0,358526,4,8735,-0,1329366
0,3754039,1,040665E-05,4,88025,-0,8580453,4,88025,0,04028382,4,88025,-0,221561,0,3754039,1,560998E-05,4,88025,-0,9224994,4,88025,0,3544976,4,88025,-0,136965
0,3759231,1,208515E-05,4,887,-0,8540169,4,887,0,03625543,4,887,-0,2255894,0,3759231,1,560998E-05,4,887,-0,9224994,4,887,0,358526,4,887,-0,1329366
0,3764423,1,309224E-05,4,89375,-0,8540169,4,89375,0,03222705,4,89375,-0,2175326,0,3764423,1,393149E-05,4,89375,-0,9265279,4,89375,0,358526,4,89375,-0,1329366
0,3769615,1,225299E-05,4,9005,-0,8540169,4,9005,0,03222705,4,9005,-0,2255894,0,3769615,1,393149E-05,4,9005,-0,9265279,4,9005,0,358526,4,9005,-0,1409934
0,3774808,1,208515E-05,4,90725,-0,8540169,4,90725,0,02417029,4,90725,-0,2255894,0,3774808,1,258869E-05,4,90725,-0,9265279,4,90725,0,3544976,4,90725,-0,1329366
0,378,1,258869E-05,4,914,-0,8580453,4,914,0,03222705,4,914,-0,221561,0,378,1,02388E-05,4,914,-0,9305562,4,914,0,3504692,4,914,-0,136965
0,3785192,1,225299E-05,4,92075,-0,8499885,4,92075,0,04028382,4,92075,-0,2255894,0,3785192,9,903106E-06,4,92075,-0,9265279,4,92075,0,3464408,4,92075,-0,136965
0,3790385,1,393149E-05,4,9275,-0,8419318,4,9275,0,04028382,4,9275,-0,2255894,0,3790385,1,05745E-05,4,9275,-0,9224994,4,9275,0,3424124,4,9275,-0,1490501
0,3795577,1,460288E-05,4,93425,-0,8459601,4,93425,0,04028382,4,93425,-0,2296178,0,3795577,7,721065E-06,4,93425,-0,9184711,4,93425,0,3424124,4,93425,-0,1530785
0,3800769,1,208515E-05,4,941,-0,8499885,4,941,0,03625543,4,941,-0,2336462,0,3800769,5,874724E-06,4,941,-0,9224994,4,941,0,3424124,4,941,-0,1490501
0,3805962,1,05745E-05,4,94775,-0,8540169,4,94775,0,03625543,4,94775,-0,2336462,0,3805962,6,54612E-06,4,94775,-0,9265279,4,94775,0,3464408,4,94775,-0,1490501
0,3811154,1,275654E-05,4,9545,-0,8499885,4,9545,0,03625543,4,9545,-0,2376745,0,3811154,8,560311E-06,4,9545,-0,9265279,4,9545,0,3544976,4,9545,-0,1450217
0,3816346,1,393149E-05,4,96125,-0,8419318,4,96125,0,04028382,4,96125,-0,2336462,0,3816346,8,056764E-06,4,96125,-0,9265279,4,96125,0,3544976,4,96125,-0,136965
0,3821538,1,174945E-05,4,968,-0,8499885,4,968,0,04028382,4,968,-0,2296178,0,3821538,7,888914E-06,4,968,-0,9224994,4,968,0,358526,4,968,-0,1289082
0,3826731,1,007095E-05,4,97475,-0,8419318,4,97475,0,04028382,4,97475,-0,2135042,0,3826731,7,553216E-06,4,97475,-0,9144427,4,97475,0,3544976,4,97475,-0,1329366
0,3831923,1,02388E-05,4,9815,-0,8459601,4,9815,0,0443122,4,9815,-0,221561,0,3831923,6,881819E-06,4,9815,-0,9184711,4,9815,0,3504692,4,9815,-0,1289082
0,3837115,1,225299E-05,4,98825,-0,8499885,4,98825,0,04028382,4,98825,-0,221561,0,3837115,6,210422E-06,4,98825,-0,9144427,4,98825,0,3504692,4,98825,-0,1329366
0,3842308,1,225299E-05,4,995,-0,8499885,4,995,0,03625543,4,995,-0,2175326,0,3842308,5,539025E-06,4,995,-0,9144427,4,995,0,3464408,4,995,-0,1450217
0,38475,9,399557E-06,5,00175,-0,8540169,5,00175,0,02819867,5,00175,-0,2255894,0,38475,5,035477E-06,5,00175,-0,9184711,5,00175,0,3424124,5,00175,-0,136965
0,3852692,7,049668E-06,5,0085,-0,8580453,5,0085,0,02819867,5,0085,-0,2296178,0,3852692,4,867628E-06,5,0085,-0,9144427,5,0085,0,3464408,5,0085,-0,1409934
0,3857885,6,54612E-06,5,01525,-0,8620737,5,01525,0,02819867,5,01525,-0,2296178,0,3857885,6,881819E-06,5,01525,-0,9184711,5,01525,0,358526,5,01525,-0,1450217
0,3863077,8,89601E-06,5,022,-0,8620737,5,022,0,02819867,5,022,-0,2296178,0,3863077,8,560311E-06,5,022,-0,9265279,5,022,0,358526,5,022,-0,1329366
0,3868269,1,19173E-05,5,02875,-0,8580453,5,02875,0,02819867,5,02875,-0,2296178,0,3868269,8,560311E-06,5,02875,-0,9305562,5,02875,0,358526,5,02875,-0,1289082
0,3873461,1,326009E-05,5,0355,-0,866102,5,0355,0,03222705,5,0355,-0,2255894,0,3873461,8,560311E-06,5,0355,-0,9386129,5,0355,0,358526,5,0355,-0,136965
0,3878654,1,309224E-05,5,04225,-0,8620737,5,04225,0,03222705,5,04225,-0,2255894,0,3878654,9,735257E-06,5,04225,-0,9345846,5,04225,0,3544976,5,04225,-0,1329366
0,3883846,1,19173E-05,5,049,-0,8580453,5,049,0,04028382,5,049,-0,2175326,0,3883846,1,12459E-05,5,049,-0,9386129,5,049,0,3464408,5,049,-0,1450217
0,3889039,9,567407E-06,5,05575,-0,8499885,5,05575,0,04028382,5,05575,-0,2175326,0,3889039,1,376364E-05,5,05575,-0,9305562,5,05575,0,3544976,5,05575,-0,1409934
0,3894231,9,231708E-06,5,0625,-0,8459601,5,0625,0,03625543,5,0625,-0,221561,0,3894231,1,359579E-05,5,0625,-0,9265279,5,0625,0,3504692,5,0625,-0,1490501
0,3899423,1,19173E-05,5,06925,-0,8499885,5,06925,0,04028382,5,06925,-0,2336462,0,3899423,8,89601E-06,5,06925,-0,9184711,5,06925,0,3544976,5,06925,-0,1450217
0,3904615,1,443503E-05,5,076,-0,8540169,5,076,0,03222705,5,076,-0,2296178,0,3904615,6,54612E-06,5,076,-0,9104142,5,076,0,358526,5,076,-0,1490501
0,3909808,1,376364E-05,5,08275,-0,8459601,5,08275,0,04028382,5,08275,-0,2336462,0,3909808,7,217517E-06,5,08275,-0,9144427,5,08275,0,3544976,5,08275,-0,136965
0,3915,1,292439E-05,5,0895,-0,8459601,5,0895,0,03222705,5,0895,-0,2336462,0,3915,8,056764E-06,5,0895,-0,9063858,5,0895,0,3544976,5,0895,-0,136965
0,3920192,1,258869E-05,5,09625,-0,8419318,5,09625,0,03625543,5,09625,-0,2336462,0,3920192,9,903106E-06,5,09625,-0,9063858,5,09625,0,3424124,5,09625,-0,136965
0,3925385,1,19173E-05,5,103,-0,8419318,5,103,0,03625543,5,103,-0,2376745,0,3925385,1,15816E-05,5,103,-0,9063858,5,103,0,3464408,5,103,-0,1409934
0,3930577,1,09102E-05,5,10975,-0,8419318,5,10975,0,03625543,5,10975,-0,2336462,0,3930577,1,09102E-05,5,10975,-0,9063858,5,10975,0,3424124,5,10975,-0,136965
0,3935769,1,15816E-05,5,1165,-0,8419318,5,1165,0,03625543,5,1165,-0,2336462,0,3935769,8,224613E-06,5,1165,-0,9184711,5,1165,0,3424124,5,1165,-0,1450217
0,3940962,1,258869E-05,5,12325,-0,8419318,5,12325,0,03625543,5,12325,-0,2336462,0,3940962,6,881819E-06,5,12325,-0,9184711,5,12325,0,3504692,5,12325,-0,1490501
0,3946154,1,326009E-05,5,13,-0,8499885,5,13,0,03625543,5,13,-0,2336462,0,3946154,8,224613E-06,5,13,-0,9224994,5,13,0,3544976,5,13,-0,1450217
0,3951346,1,258869E-05,5,13675,-0,8580453,5,13675,0,03625543,5,13675,-0,2336462,0,3951346,8,89601E-06,5,13675,-0,9265279,5,13675,0,3544976,5,13675,-0,1450217
0,3956538,9,903106E-06,5,1435,-0,8580453,5,1435,0,03222705,5,1435,-0,2336462,0,3956538,7,217517E-06,5,1435,-0,9305562,5,1435,0,3504692,5,1435,-0,136965
0,3961731,9,567407E-06,5,15025,-0,8620737,5,15025,0,04028382,5,15025,-0,2296178,0,3961731,5,874724E-06,5,15025,-0,9305562,5,15025,0,3625543,5,15025,-0,1329366
0,3966923,1,174945E-05,5,157,-0,8620737,5,157,0,03625543,5,157,-0,2296178,0,3966923,5,203327E-06,5,157,-0,9305562,5,157,0,3544976,5,157,-0,136965
0,3972116,1,309224E-05,5,16375,-0,8580453,5,16375,0,03625543,5,16375,-0,2255894,0,3972116,4,36408E-06,5,16375,-0,9305562,5,16375,0,358526,5,16375,-0,1329366
0,3977308,1,326009E-05,5,1705,-0,8540169,5,1705,0,03625543,5,1705,-0,2255894,0,3977308,4,531929E-06,5,1705,-0,9265279,5,1705,0,3544976,5,1705,-0,1329366
0,39825,1,326009E-05,5,17725,-0,8540169,5,17725,0,03222705,5,17725,-0,2175326,0,39825,7,217517E-06,5,17725,-0,9265279,5,17725,0,3544976,5,17725,-0,136965
0,3987692,1,359579E-05,5,184,-0,8499885,5,184,0,02417029,5,184,-0,221561,0,3987692,1,05745E-05,5,184,-0,9144427,5,184,0,3464408,5,184,-0,1329366
0,3992885,1,05745E-05,5,19075,-0,8540169,5,19075,0,03625543,5,19075,-0,221561,0,3992885,1,258869E-05,5,19075,-0,9104142,5,19075,0,3464408,5,19075,-0,1329366
0,3998077,6,210422E-06,5,1975,-0,8499885,5,1975,0,02819867,5,1975,-0,2175326,0,3998077,1,19173E-05,5,1975,-0,9144427,5,1975,0,3504692,5,1975,-0,136965
0,4003269,5,203327E-06,5,20425,-0,8540169,5,20425,0,02819867,5,20425,-0,221561,0,4003269,9,231708E-06,5,20425,-0,9184711,5,20425,0,3424124,5,20425,-0,136965
0,4008462,8,560311E-06,5,211,-0,8499885,5,211,0,02819867,5,211,-0,221561,0,4008462,9,231708E-06,5,211,-0,9224994,5,211,0,3424124,5,211,-0,136965
0,4013654,1,258869E-05,5,21775,-0,8540169,5,21775,0,03222705,5,21775,-0,2255894,0,4013654,1,12459E-05,5,21775,-0,9224994,5,21775,0,3504692,5,21775,-0,1409934
0,4018846,1,560998E-05,5,2245,-0,8499885,5,2245,0,02819867,5,2245,-0,2296178,0,4018846,1,12459E-05,5,2245,-0,9184711,5,2245,0,3544976,5,2245,-0,1409934
0,4024039,1,628138E-05,5,23125,-0,8499885,5,23125,0,03625543,5,23125,-0,2255894,0,4024039,9,567407E-06,5,23125,-0,9224994,5,23125,0,3544976,5,23125,-0,1409934
0,4029231,1,577783E-05,5,238,-0,8540169,5,238,0,04028382,5,238,-0,2296178,0,4029231,9,399557E-06,5,238,-0,9224994,5,238,0,3544976,5,238,-0,1409934
0,4034423,1,359579E-05,5,24475,-0,8499885,5,24475,0,04028382,5,24475,-0,2296178,0,4034423,9,903106E-06,5,24475,-0,9265279,5,24475,0,3544976,5,24475,-0,1409934
0,4039615,1,258869E-05,5,2515,-0,8499885,5,2515,0,04834058,5,2515,-0,2336462,0,4039615,9,735257E-06,5,2515,-0,9224994,5,2515,0,3504692,5,2515,-0,1409934
0,4044808,1,225299E-05,5,25825,-0,8499885,5,25825,0,0443122,5,25825,-0,2255894,0,4044808,1,12459E-05,5,25825,-0,9184711,5,25825,0,358526,5,25825,-0,1409934
0,405,1,05745E-05,5,265,-0,8499885,5,265,0,04028382,5,265,-0,2255894,0,405,1,258869E-05,5,265,-0,9184711,5,265,0,3544976,5,265,-0,1329366
0,4055192,1,007095E-05,5,27175,-0,8499885,5,27175,0,04028382,5,27175,-0,221561,0,4055192,1,359579E-05,5,27175,-0,9184711,5,27175,0,358526,5,27175,-0,1409934
0,4060385,1,05745E-05,5,2785,-0,8499885,5,2785,0,04028382,5,2785,-0,2255894,0,4060385,1,309224E-05,5,2785,-0,9144427,5,2785,0,3544976,5,2785,-0,136965
0,4065577,1,05745E-05,5,28525,-0,8499885,5,28525,0,03222705,5,28525,-0,221561,0,4065577,1,258869E-05,5,28525,-0,9184711,5,28525,0,3504692,5,28525,-0,1409934
0,4070769,9,903106E-06,5,292,-0,8499885,5,292,0,03222705,5,292,-0,221561,0,4070769,1,141375E-05,5,292,-0,9184711,5,292,0,3544976,5,292,-0,1409934
0,4075962,1,242084E-05,5,29875,-0,8540169,5,29875,0,03222705,5,29875,-0,2255894,0,4075962,1,09102E-05,5,29875,-0,9184711,5,29875,0,3504692,5,29875,-0,1450217
