Label: R BICEPS BRACHII: EMG 1 Sampling frequency: 1,925926e+003 Number of points: 58682 start: 0,000000e+000 Unit: Volts Domain Unit: s
Label: R BICEPS BRACHII: Acc 1.X Sampling frequency: 1,481481e+002 Number of points: 4514 start: 0,000000e+000 Unit: g Domain Unit: s
Label: R BICEPS BRACHII: Acc 1.Y Sampling frequency: 1,481481e+002 Number of points: 4514 start: 0,000000e+000 Unit: g Domain Unit: s
Label: R BICEPS BRACHII: Acc 1.Z Sampling frequency: 1,481481e+002 Number of points: 4514 start: 0,000000e+000 Unit: g Domain Unit: s
Label: R TRICEPS BRACHII: EMG 2 Sampling frequency: 1,925926e+003 Number of points: 58682 start: 0,000000e+000 Unit: Volts Domain Unit: s
Label: R TRICEPS BRACHII: Acc 2.X Sampling frequency: 1,481481e+002 Number of points: 4514 start: 0,000000e+000 Unit: g Domain Unit: s
Label: R TRICEPS BRACHII: Acc 2.Y Sampling frequency: 1,481481e+002 Number of points: 4514 start: 0,000000e+000 Unit: g Domain Unit: s
Label: R TRICEPS BRACHII: Acc 2.Z Sampling frequency: 1,481481e+002 Number of points: 4514 start: 0,000000e+000 Unit: g Domain Unit: s
Start Trigger Method: None
Stop Trigger Method: None
 
X[s],"R BICEPS BRACHII: EMG 1",X[s],"R BICEPS BRACHII: Acc 1.X",X[s],"R BICEPS BRACHII: Acc 1.Y",X[s],"R BICEPS BRACHII: Acc 1.Z",X[s],"R TRICEPS BRACHII: EMG 2",X[s],"R TRICEPS BRACHII: Acc 2.X",X[s],"R TRICEPS BRACHII: Acc 2.Y",X[s],"R TRICEPS BRACHII: Acc 2.Z"
0.000000,0,0.000000,0,0.000000,0,0.000000,0,0.000000,0,0.000000,0,0.000000,0,0.000000,0
0,0005192308,0,0,00675,0,0,00675,0,0,00675,0,0,0005192308,0,0,00675,0,0,00675,0,0,00675,0
0,001038462,0,0,0135,0,0,0135,0,0,0135,0,0,001038462,0,0,0135,0,0,0135,0,0,0135,0
0,001557692,0,0,02025,0,0,02025,0,0,02025,0,0,001557692,0,0,02025,0,0,02025,0,0,02025,0
0,002076923,0,0,027,0,0,027,0,0,027,0,0,002076923,0,0,027,0,0,027,0,0,027,0
0,002596154,0,0,03375,0,0,03375,0,0,03375,0,0,002596154,0,0,03375,0,0,03375,0,0,03375,0
0,003115385,0,0,0405,0,0,0405,0,0,0405,0,0,003115385,0,0,0405,0,0,0405,0,0,0405,0
0,003634615,0,0,04725,0,0,04725,0,0,04725,0,0,003634615,0,0,04725,0,0,04725,0,0,04725,0
0,004153846,0,0,054,-0,8701304,0,054,0,03625543,0,054,-0,2578164,0,004153846,0,0,054,-0,9305562,0,054,0,2940719,0,054,-0,1732204
0,004673077,0,0,06075,-0,8781872,0,06075,0,03222705,0,06075,-0,2578164,0,004673077,0,0,06075,-0,9345846,0,06075,0,306157,0,06075,-0,1772488
0,005192308,0,0,0675,-0,8781872,0,0675,0,04028382,0,0675,-0,2497597,0,005192308,0,0,0675,-0,9386129,0,0675,0,3142138,0,0675,-0,1812772
0,005711539,0,0,07425,-0,866102,0,07425,0,04834058,0,07425,-0,2417029,0,005711539,0,0,07425,-0,9345846,0,07425,0,3182422,0,07425,-0,1772488
0,006230769,0,0,081,-0,8540169,0,081,0,06042573,0,081,-0,2376745,0,006230769,0,0,081,-0,9265279,0,081,0,3343557,0,081,-0,169192
0,00675,0,0,08775,-0,833875,0,08775,0,07653925,0,08775,-0,2255894,0,00675,0,0,08775,-0,9265279,0,08775,0,3383841,0,08775,-0,1611353
0,007269231,0,0,0945,-0,833875,0,0945,0,08459602,0,0945,-0,2175326,0,007269231,0,0,0945,-0,9144427,0,0945,0,3464408,0,0945,-0,1571069
0,007788462,0,0,10125,-0,8379034,0,10125,0,0886244,0,10125,-0,2094758,0,007788462,0,0,10125,-0,9104142,0,10125,0,3464408,0,10125,-0,1450217
0,008307693,0,0,108,-0,8459601,0,108,0,0886244,0,108,-0,2135042,0,008307693,0,0,108,-0,9184711,0,108,0,3464408,0,108,-0,1409934
0,008826924,0,0,11475,-0,866102,0,11475,0,0886244,0,11475,-0,2175326,0,008826924,0,0,11475,-0,9224994,0,11475,0,3544976,0,11475,-0,1208515
0,009346154,0,0,1215,-0,8701304,0,1215,0,0886244,0,1215,-0,2336462,0,009346154,0,0,1215,-0,9305562,0,1215,0,3544976,0,1215,-0,1168231
0,009865385,0,0,12825,-0,8741588,0,12825,0,08459602,0,12825,-0,2336462,0,009865385,0,0,12825,-0,9305562,0,12825,0,358526,0,12825,-0,1047379
0,01038462,0,0,135,-0,8741588,0,135,0,07653925,0,135,-0,2296178,0,01038462,0,0,135,-0,9305562,0,135,0,358526,0,135,-0,1047379
0,01090385,0,0,14175,-0,866102,0,14175,0,06445411,0,14175,-0,221561,0,01090385,0,0,14175,-0,9345846,0,14175,0,3464408,0,14175,-0,1047379
0,01142308,0,0,1485,-0,866102,0,1485,0,04834058,0,1485,-0,2255894,0,01142308,0,0,1485,-0,9386129,0,1485,0,3383841,0,1485,-0,1127947
0,01194231,0,0,15525,-0,8701304,0,15525,0,04028382,0,15525,-0,2094758,0,01194231,0,0,15525,-0,9305562,0,15525,0,3303273,0,15525,-0,1208515
0,01246154,0,0,162,-0,8741588,0,162,0,03222705,0,162,-0,2014191,0,01246154,0,0,162,-0,9305562,0,162,0,3222705,0,162,-0,1329366
0,01298077,0,0,16875,-0,8781872,0,16875,0,03625543,0,16875,-0,1933623,0,01298077,0,0,16875,-0,9184711,0,16875,0,3222705,0,16875,-0,1409934
0,0135,0,0,1755,-0,8741588,0,1755,0,05236896,0,1755,-0,1812772,0,0135,0,0,1755,-0,9184711,0,1755,0,3142138,0,1755,-0,1611353
0,01401923,0,0,18225,-0,8701304,0,18225,0,06848249,0,18225,-0,1772488,0,01401923,0,0,18225,-0,9184711,0,18225,0,3222705,0,18225,-0,169192
0,01453846,0,0,189,-0,8540169,0,189,0,08056764,0,189,-0,1651637,0,01453846,0,0,189,-0,9184711,0,189,0,3182422,0,189,-0,169192
0,01505769,0,0,19575,-0,8419318,0,19575,0,08459602,0,19575,-0,136965,0,01505769,0,0,19575,-0,9184711,0,19575,0,3222705,0,19575,-0,1732204
0,01557692,0,0,2025,-0,8459601,0,2025,0,08056764,0,2025,-0,1409934,0,01557692,0,0,2025,-0,9224994,0,2025,0,3303273,0,2025,-0,1651637
0,01609615,0,0,20925,-0,8540169,0,20925,0,0886244,0,20925,-0,1732204,0,01609615,0,0,20925,-0,9265279,0,20925,0,3424124,0,20925,-0,1611353
0,01661539,0,0,216,-0,8620737,0,216,0,1007095,0,216,-0,2336462,0,01661539,0,0,216,-0,9305562,0,216,0,3464408,0,216,-0,1530785
0,01713462,0,0,22275,-0,8540169,0,22275,0,1047379,0,22275,-0,2779583,0,01713462,0,0,22275,-0,9305562,0,22275,0,3706111,0,22275,-0,1409934
0,01765385,0,0,2295,-0,8379034,0,2295,0,1087663,0,2295,-0,306157,0,01765385,0,0,2295,-0,9224994,0,2295,0,390753,0,2295,-0,1329366
0,01817308,0,0,23625,-0,8137331,0,23625,0,0886244,0,23625,-0,2981002,0,01817308,0,0,23625,-0,9104142,0,23625,0,4108949,0,23625,-0,1127947
0,01869231,0,0,243,-0,801648,0,243,0,05639734,0,243,-0,2578164,0,01869231,0,0,243,-0,8943007,0,243,0,4108949,0,243,-0,09668116
0,01921154,0,0,24975,-0,7935912,0,24975,0,01611353,0,24975,-0,1933623,0,01921154,0,0,24975,-0,8781872,0,24975,0,3947814,0,24975,-0,09668116
0,01973077,0,0,2565,-0,7976196,0,2565,-0,01611353,0,2565,-0,1450217,0,01973077,0,0,2565,-0,866102,0,2565,0,3665827,0,2565,-0,1127947
0,02025,0,0,26325,-0,801648,0,26325,-0,02819867,0,26325,-0,1329366,0,02025,0,0,26325,-0,8781872,0,26325,0,3383841,0,26325,-0,1409934
0,02076923,0,0,27,-0,7976196,0,27,-0,008056764,0,27,-0,169192,0,02076923,0,0,27,-0,8741588,0,27,0,306157,0,27,-0,169192
0,02128846,0,0,27675,-0,7976196,0,27675,0,0443122,0,27675,-0,2336462,0,02128846,0,0,27675,-0,8822156,0,27675,0,2860151,0,27675,-0,1973907
0,02180769,0,0,2835,-0,801648,0,2835,0,09668116,0,2835,-0,2819867,0,02180769,0,0,2835,-0,8943007,0,2835,0,2940719,0,2835,-0,2135042
0,02232692,0,0,29025,-0,8177615,0,29025,0,1289082,0,29025,-0,2860151,0,02232692,0,0,29025,-0,9063858,0,29025,0,2940719,0,29025,-0,2054475
0,02284615,0,0,297,-0,8419318,0,297,0,1450217,0,297,-0,2658732,0,02284615,0,0,297,-0,9184711,0,297,0,2940719,0,297,-0,2014191
0,02336538,0,0,30375,-0,8620737,0,30375,0,1208515,0,30375,-0,2296178,0,02336538,0,0,30375,-0,9265279,0,30375,0,306157,0,30375,-0,1893339
0,02388461,0,0,3105,-0,8701304,0,3105,0,07251087,0,3105,-0,2094758,0,02388461,0,0,3105,-0,9386129,0,3105,0,3182422,0,3105,-0,1893339
0,02440385,0,0,31725,-0,8620737,0,31725,0,03222705,0,31725,-0,1853056,0,02440385,0,0,31725,-0,9426414,0,31725,0,3262989,0,31725,-0,1772488
0,02492308,0,0,324,-0,8379034,0,324,0,01611353,0,324,-0,1732204,0,02492308,0,0,324,-0,9426414,0,324,0,3504692,0,324,-0,169192
0,02544231,0,0,33075,-0,8097047,0,33075,0,03222705,0,33075,-0,1732204,0,02544231,0,0,33075,-0,9305562,0,33075,0,358526,0,33075,-0,1530785
0,02596154,0,0,3375,-0,7895628,0,3375,0,08056764,0,3375,-0,1973907,0,02596154,0,0,3375,-0,9184711,0,3375,0,358526,0,3375,-0,1329366
0,02648077,0,0,34425,-0,7815061,0,34425,0,1329366,0,34425,-0,2094758,0,02648077,0,0,34425,-0,8983291,0,34425,0,3665827,0,34425,-0,1168231
0,027,0,0,351,-0,7895628,0,351,0,1450217,0,351,-0,2054475,0,027,0,0,351,-0,8943007,0,351,0,3544976,0,351,-0,1208515
0,02751923,0,0,35775,-0,8177615,0,35775,0,1289082,0,35775,-0,1853056,0,02751923,0,0,35775,-0,8902723,0,35775,0,3625543,0,35775,-0,1127947
0,02803846,0,0,3645,-0,8741588,0,3645,0,09265278,0,3645,-0,1611353,0,02803846,0,0,3645,-0,9144427,0,3645,0,3504692,0,3645,-0,1289082
0,02855769,0,0,37125,-0,9104142,0,37125,0,06042573,0,37125,-0,1611353,0,02855769,0,0,37125,-0,9426414,0,37125,0,3424124,0,37125,-0,1289082
0,02907692,0,0,378,-0,9386129,0,378,0,03625543,0,378,-0,1812772,0,02907692,0,0,378,-0,9748684,0,378,0,3464408,0,378,-0,1248798
0,02959615,0,0,38475,-0,9466697,0,38475,0,02014191,0,38475,-0,1812772,0,02959615,0,0,38475,-0,9950103,0,38475,0,3424124,0,38475,-0,1208515
0,03011538,0,0,3915,-0,9305562,0,3915,0,004028382,0,3915,-0,1611353,0,03011538,0,0,3915,-0,9950103,0,3915,0,3464408,0,3915,-0,1168231
0,03063462,0,0,39825,-0,8983291,0,39825,0,008056764,0,39825,-0,1490501,0,03063462,0,0,39825,-0,9788967,0,39825,0,3544976,0,39825,-0,1168231
0,03115385,0,0,405,-0,8499885,0,405,0,03222705,0,405,-0,1571069,0,03115385,0,0,405,-0,9587549,0,405,0,3544976,0,405,-0,1289082
0,03167308,0,0,41175,-0,801648,0,41175,0,07251087,0,41175,-0,1611353,0,03167308,0,0,41175,-0,9265279,0,41175,0,3625543,0,41175,-0,1490501
0,03219231,0,0,4185,-0,7694209,0,4185,0,09668116,0,4185,-0,1530785,0,03219231,0,0,4185,-0,8862439,0,4185,0,3665827,0,4185,-0,1651637
0,03271154,0,0,42525,-0,7331654,0,42525,0,1087663,0,42525,-0,1490501,0,03271154,0,0,42525,-0,8419318,0,42525,0,3665827,0,42525,-0,1732204
0,03323077,0,0,432,-0,7210803,0,432,0,08056764,0,432,-0,1530785,0,03323077,0,0,432,-0,8137331,0,432,0,3706111,0,432,-0,169192
0,03375,0,0,43875,-0,7291371,0,43875,0,03625543,0,43875,-0,1571069,0,03375,0,0,43875,-0,7935912,0,43875,0,3706111,0,43875,-0,1571069
0,03426923,0,0,4455,-0,7412222,0,4455,0,004028382,0,4455,-0,169192,0,03426923,0,0,4455,-0,7935912,0,4455,0,3706111,0,4455,-0,169192
0,03478846,0,0,45225,-0,7533074,0,45225,-0,01611353,0,45225,-0,2054475,0,03478846,0,0,45225,-0,801648,0,45225,0,3786679,0,45225,-0,1732204
0,03530769,0,0,459,-0,7613642,0,459,-0,01208515,0,459,-0,2255894,0,03530769,0,0,459,-0,8177615,0,459,0,390753,0,459,-0,1812772
0,03582693,0,0,46575,-0,7774777,0,46575,0,0,46575,-0,2255894,0,03582693,0,0,46575,-0,8258182,0,46575,0,3988098,0,46575,-0,1893339
0,03634615,0,0,4725,-0,7935912,0,4725,0,04028382,0,4725,-0,2094758,0,03634615,0,0,4725,-0,8459601,0,4725,0,4028382,0,4725,-0,1973907
0,03686538,0,0,47925,-0,8217899,0,47925,0,09265278,0,47925,-0,1812772,0,03686538,0,0,47925,-0,8701304,0,47925,0,4108949,0,47925,-0,1973907
0,03738461,0,0,486,-0,8540169,0,486,0,1127947,0,486,-0,1651637,0,03738461,0,0,486,-0,9184711,0,486,0,4149233,0,486,-0,2014191
0,03790385,0,0,49275,-0,8943007,0,49275,0,1248798,0,49275,-0,1571069,0,03790385,0,0,49275,-0,97084,0,49275,0,4189517,0,49275,-0,1933623
0,03842308,0,0,4995,-0,9184711,0,4995,0,1289082,0,4995,-0,1450217,0,03842308,0,0,4995,-1,027237,0,4995,0,4270085,0,4995,-0,1933623
0,03894231,0,0,50625,-0,9184711,0,50625,0,1289082,0,50625,-0,1571069,0,03894231,0,0,50625,-1,055436,0,50625,0,4350652,0,50625,-0,1812772
0,03946154,0,0,513,-0,9144427,0,513,0,1087663,0,513,-0,1732204,0,03946154,0,0,513,-1,059464,0,513,0,4270085,0,513,-0,1611353
0,03998077,0,0,51975,-0,8862439,0,51975,0,08056764,0,51975,-0,1732204,0,03998077,0,0,51975,-1,051408,0,51975,0,4189517,0,51975,-0,1490501
0,0405,0,0,5265,-0,8620737,0,5265,0,0443122,0,5265,-0,1812772,0,0405,0,0,5265,-1,027237,0,5265,0,3947814,0,5265,-0,136965
0,04101923,0,0,53325,-0,833875,0,53325,0,02014191,0,53325,-0,1853056,0,04101923,0,0,53325,-0,9950103,0,53325,0,3625543,0,53325,-0,136965
0,04153846,0,0,54,-0,8217899,0,54,0,008056764,0,54,-0,1812772,0,04153846,0,0,54,-0,9506981,0,54,0,3343557,0,54,-0,1409934
0,04205769,0,0,54675,-0,8217899,0,54675,0,01208515,0,54675,-0,1772488,0,04205769,0,0,54675,-0,8983291,0,54675,0,3101854,0,54675,-0,1450217
0,04257692,0,0,5535,-0,8258182,0,5535,0,02819867,0,5535,-0,1853056,0,04257692,0,0,5535,-0,8580453,0,5535,0,3021286,0,5535,-0,1530785
0,04309615,0,0,56025,-0,8258182,0,56025,0,04028382,0,56025,-0,1893339,0,04309615,0,0,56025,-0,8298466,0,56025,0,306157,0,56025,-0,1490501
0,04361539,0,0,567,-0,8258182,0,567,0,06445411,0,567,-0,1812772,0,04361539,0,0,567,-0,8097047,0,567,0,3222705,0,567,-0,1530785
0,04413462,0,0,57375,-0,8379034,0,57375,0,0886244,0,57375,-0,1248798,0,04413462,0,0,57375,-0,8177615,0,57375,0,3424124,0,57375,-0,136965
0,04465385,0,0,5805,-0,8701304,0,5805,0,1289082,0,5805,-0,09668116,0,04465385,0,0,5805,-0,8419318,0,5805,0,3544976,0,5805,-0,1329366
0,04517308,0,0,58725,-0,9023575,0,58725,0,1289082,0,58725,-0,1127947,0,04517308,0,0,58725,-0,8701304,0,58725,0,3706111,0,58725,-0,136965
0,04569231,0,0,594,-0,9023575,0,594,0,09265278,0,594,-0,1450217,0,04569231,0,0,594,-0,9144427,0,594,0,3988098,0,594,-0,1450217
0,04621154,0,0,60075,-0,8862439,0,60075,0,02819867,0,60075,-0,1611353,0,04621154,0,0,60075,-0,9386129,0,60075,0,4310368,0,60075,-0,1571069
0,04673077,0,0,6075,-0,8499885,0,6075,-0,02819867,0,6075,-0,1530785,0,04673077,0,0,6075,-0,9506981,0,6075,0,4632639,0,6075,-0,1651637
0,04725,0,0,61425,-0,801648,0,61425,-0,05236896,0,61425,-0,1329366,0,04725,0,0,61425,-0,9506981,0,61425,0,4753491,0,61425,-0,1732204
0,04776923,0,0,621,-0,7533074,0,621,-0,03222705,0,621,-0,1168231,0,04776923,0,0,621,-0,9224994,0,621,0,4834058,0,621,-0,1772488
0,04828846,0,0,62775,-0,7291371,0,62775,0,0,62775,-0,1329366,0,04828846,0,0,62775,-0,8822156,0,62775,0,4793774,0,62775,-0,1812772
0,04880769,0,0,6345,-0,7452506,0,6345,0,04834058,0,6345,-0,1490501,0,04880769,0,0,6345,-0,8499885,0,6345,0,4672923,0,6345,-0,169192
0,04932692,0,0,64125,-0,801648,0,64125,0,1208515,0,64125,-0,1530785,0,04932692,0,0,64125,-0,8459601,0,64125,0,4632639,0,64125,-0,1571069
0,04984615,0,0,648,-0,8701304,0,648,0,1611353,0,648,-0,1530785,0,04984615,0,0,648,-0,8499885,0,648,0,4471503,0,648,-0,1530785
0,05036538,0,0,65475,-0,9184711,0,65475,0,1571069,0,65475,-0,1530785,0,05036538,0,0,65475,-0,8701304,0,65475,0,4350652,0,65475,-0,1208515
0,05088462,0,0,6615,-0,9224994,0,6615,0,1289082,0,6615,-0,1450217,0,05088462,0,0,6615,-0,8983291,0,6615,0,4149233,0,6615,-0,1007095
0,05140385,0,0,66825,-0,8943007,0,66825,0,09265278,0,66825,-0,1409934,0,05140385,0,0,66825,-0,9144427,0,66825,0,4108949,0,66825,-0,07653925
0,05192308,0,0,675,-0,8459601,0,675,0,05639734,0,675,-0,1490501,0,05192308,0,0,675,-0,9265279,0,675,0,390753,0,675,-0,07653925
0,05244231,0,0,68175,-0,7976196,0,68175,0,02819867,0,68175,-0,1651637,0,05244231,0,0,68175,-0,9104142,0,68175,0,3786679,0,68175,-0,08459602
0,05296154,0,0,6885,-0,7653925,0,6885,0,02819867,0,6885,-0,1812772,0,05296154,0,0,6885,-0,8902723,0,6885,0,358526,0,6885,-0,1127947
0,05348077,0,0,69525,-0,7573358,0,69525,0,02819867,0,69525,-0,1893339,0,05348077,0,0,69525,-0,866102,0,69525,0,358526,0,69525,-0,1329366
0,054,1,12459E-05,0,702,-0,7774777,0,702,0,04834058,0,702,-0,1732204,0,054,6,210422E-06,0,702,-0,8540169,0,702,0,3464408,0,702,-0,1611353
0,05451923,1,12459E-05,0,70875,-0,8177615,0,70875,0,06445411,0,70875,-0,1571069,0,05451923,3,189135E-06,0,70875,-0,8540169,0,70875,0,3424124,0,70875,-0,1812772
0,05503846,1,258869E-05,0,7155,-0,8620737,0,7155,0,07653925,0,7155,-0,1571069,0,05503846,1,174945E-06,0,7155,-0,8701304,0,7155,0,3383841,0,7155,-0,1933623
0,05555769,1,15816E-05,0,72225,-0,8943007,0,72225,0,08459602,0,72225,-0,1530785,0,05555769,8,392462E-07,0,72225,-0,9023575,0,72225,0,3464408,0,72225,-0,1933623
0,05607693,1,107805E-05,0,729,-0,8983291,0,729,0,0886244,0,729,-0,1490501,0,05607693,3,356985E-06,0,729,-0,9305562,0,729,0,3625543,0,729,-0,1853056
0,05659616,1,242084E-05,0,73575,-0,8822156,0,73575,0,1007095,0,73575,-0,1248798,0,05659616,5,203327E-06,0,73575,-0,9466697,0,73575,0,3867247,0,73575,-0,1530785
0,05711538,1,443503E-05,0,7425,-0,8379034,0,7425,0,0886244,0,7425,-0,1208515,0,05711538,6,210422E-06,0,7425,-0,9466697,0,7425,0,4108949,0,7425,-0,1289082
0,05763461,1,359579E-05,0,74925,-0,7895628,0,74925,0,07251087,0,74925,-0,1289082,0,05763461,7,217517E-06,0,74925,-0,9184711,0,74925,0,443122,0,74925,-0,1047379
0,05815385,1,12459E-05,0,756,-0,7653925,0,756,0,04834058,0,756,-0,136965,0,05815385,7,553216E-06,0,756,-0,8822156,0,756,0,4672923,0,756,-0,0886244
0,05867308,1,107805E-05,0,76275,-0,749279,0,76275,0,04028382,0,76275,-0,1208515,0,05867308,8,560311E-06,0,76275,-0,8499885,0,76275,0,4793774,0,76275,-0,08459602
0,05919231,1,275654E-05,0,7695,-0,7815061,0,7695,0,02819867,0,7695,-0,1087663,0,05919231,9,567407E-06,0,7695,-0,8217899,0,7695,0,4834058,0,7695,-0,09265278
0,05971154,1,326009E-05,0,77625,-0,8137331,0,77625,0,02417029,0,77625,-0,1087663,0,05971154,1,09102E-05,0,77625,-0,8097047,0,77625,0,4793774,0,77625,-0,1047379
0,06023077,1,326009E-05,0,783,-0,8540169,0,783,0,02417029,0,783,-0,1087663,0,06023077,1,12459E-05,0,783,-0,8137331,0,783,0,4713207,0,783,-0,1087663
0,06075,1,225299E-05,0,78975,-0,8822156,0,78975,0,03625543,0,78975,-0,1007095,0,06075,1,02388E-05,0,78975,-0,833875,0,78975,0,4592355,0,78975,-0,1168231
0,06126923,1,09102E-05,0,7965,-0,8943007,0,7965,0,05639734,0,7965,-0,0886244,0,06126923,8,560311E-06,0,7965,-0,8580453,0,7965,0,4632639,0,7965,-0,1168231
0,06178846,1,107805E-05,0,80325,-0,8943007,0,80325,0,06445411,0,80325,-0,08056764,0,06178846,1,15816E-05,0,80325,-0,8822156,0,80325,0,4672923,0,80325,-0,1168231
0,06230769,1,225299E-05,0,81,-0,8781872,0,81,0,06848249,0,81,-0,0886244,0,06230769,1,493858E-05,0,81,-0,8943007,0,81,0,4874342,0,81,-0,1087663
0,06282692,1,225299E-05,0,81675,-0,866102,0,81675,0,05236896,0,81675,-0,1087663,0,06282692,1,326009E-05,0,81675,-0,8983291,0,81675,0,5035477,0,81675,-0,1007095
0,06334615,1,05745E-05,0,8235,-0,8379034,0,8235,0,04834058,0,8235,-0,1168231,0,06334615,1,09102E-05,0,8235,-0,8943007,0,8235,0,5156329,0,8235,-0,1007095
0,06386539,9,903106E-06,0,83025,-0,8298466,0,83025,0,06445411,0,83025,-0,1168231,0,06386539,9,567407E-06,0,83025,-0,9023575,0,83025,0,5156329,0,83025,-0,09265278
0,06438462,9,903106E-06,0,837,-0,8419318,0,837,0,08056764,0,837,-0,1248798,0,06438462,9,903106E-06,0,837,-0,9023575,0,837,0,5035477,0,837,-0,09668116
0,06490385,9,231708E-06,0,84375,-0,8540169,0,84375,0,1087663,0,84375,-0,1490501,0,06490385,1,107805E-05,0,84375,-0,9104142,0,84375,0,4914626,0,84375,-0,1007095
0,06542308,9,567407E-06,0,8505,-0,8540169,0,8505,0,1289082,0,8505,-0,1812772,0,06542308,1,02388E-05,0,8505,-0,9224994,0,8505,0,4592355,0,8505,-0,1087663
0,06594231,1,05745E-05,0,85725,-0,8499885,0,85725,0,1571069,0,85725,-0,1893339,0,06594231,9,735257E-06,0,85725,-0,9386129,0,85725,0,4350652,0,85725,-0,1248798
0,06646154,1,141375E-05,0,864,-0,8419318,0,864,0,1530785,0,864,-0,1812772,0,06646154,9,903106E-06,0,864,-0,9587549,0,864,0,4189517,0,864,-0,1409934
0,06698077,1,141375E-05,0,87075,-0,8258182,0,87075,0,1450217,0,87075,-0,169192,0,06698077,1,05745E-05,0,87075,-0,9668117,0,87075,0,4149233,0,87075,-0,1530785
0,0675,9,567407E-06,0,8775,-0,8097047,0,8775,0,1007095,0,8775,-0,1571069,0,0675,1,05745E-05,0,8775,-0,9788967,0,8775,0,3988098,0,8775,-0,169192
0,06801923,6,210422E-06,0,88425,-0,7976196,0,88425,0,07251087,0,88425,-0,1409934,0,06801923,9,063859E-06,0,88425,-0,97084,0,88425,0,3826963,0,88425,-0,1611353
0,06853846,7,217517E-06,0,891,-0,801648,0,891,0,06848249,0,891,-0,1450217,0,06853846,8,224613E-06,0,891,-0,9547265,0,891,0,3786679,0,891,-0,1611353
0,0690577,8,224613E-06,0,89775,-0,8056763,0,89775,0,06445411,0,89775,-0,1450217,0,0690577,8,560311E-06,0,89775,-0,9426414,0,89775,0,390753,0,89775,-0,1530785
0,06957693,7,721065E-06,0,9045,-0,8217899,0,9045,0,06445411,0,9045,-0,1490501,0,06957693,8,89601E-06,0,9045,-0,9305562,0,9045,0,4270085,0,9045,-0,1490501
0,07009616,6,54612E-06,0,91125,-0,8298466,0,91125,0,06848249,0,91125,-0,1409934,0,07009616,8,392462E-06,0,91125,-0,9063858,0,91125,0,4793774,0,91125,-0,1248798
0,07061539,7,217517E-06,0,918,-0,8580453,0,918,0,05236896,0,918,-0,136965,0,07061539,6,54612E-06,0,918,-0,8781872,0,918,0,5236896,0,918,-0,1127947
0,07113462,7,553216E-06,0,92475,-0,8741588,0,92475,0,04834058,0,92475,-0,1289082,0,07113462,3,524834E-06,0,92475,-0,8580453,0,92475,0,559945,0,92475,-0,08056764
0,07165385,5,539025E-06,0,9315,-0,8943007,0,9315,0,04834058,0,9315,-0,1409934,0,07165385,2,517739E-06,0,9315,-0,8499885,0,9315,0,5881437,0,9315,-0,06042573
0,07217308,6,378271E-06,0,93825,-0,9063858,0,93825,0,07653925,0,93825,-0,1289082,0,07217308,6,210422E-06,0,93825,-0,8580453,0,93825,0,5881437,0,93825,-0,0443122
0,0726923,7,553216E-06,0,945,-0,9224994,0,945,0,1248798,0,945,-0,1208515,0,0726923,8,224613E-06,0,945,-0,8781872,0,945,0,5518883,0,945,-0,0443122
0,07321154,9,231708E-06,0,95175,-0,9305562,0,95175,0,169192,0,95175,-0,1289082,0,07321154,7,888914E-06,0,95175,-0,8983291,0,95175,0,5116045,0,95175,-0,06042573
0,07373077,1,225299E-05,0,9585,-0,9265279,0,9585,0,1933623,0,9585,-0,1571069,0,07373077,9,903106E-06,0,9585,-0,9265279,0,9585,0,4793774,0,9585,-0,0886244
0,07425,1,376364E-05,0,96525,-0,8983291,0,96525,0,1853056,0,96525,-0,169192,0,07425,1,326009E-05,0,96525,-0,9386129,0,96525,0,4672923,0,96525,-0,1007095
0,07476923,1,393149E-05,0,972,-0,8741588,0,972,0,1490501,0,972,-0,1571069,0,07476923,1,527428E-05,0,972,-0,9587549,0,972,0,443122,0,972,-0,1248798
0,07528846,1,460288E-05,0,97875,-0,8580453,0,97875,0,1087663,0,97875,-0,1409934,0,07528846,1,460288E-05,0,97875,-0,97084,0,97875,0,4310368,0,97875,-0,136965
0,07580769,1,443503E-05,0,9855,-0,8540169,0,9855,0,08056764,0,9855,-0,1208515,0,07580769,1,359579E-05,0,9855,-0,9788967,0,9855,0,4229801,0,9855,-0,136965
0,07632692,1,326009E-05,0,99225,-0,8459601,0,99225,0,05236896,0,99225,-0,1047379,0,07632692,1,326009E-05,0,99225,-0,9788967,0,99225,0,4350652,0,99225,-0,1289082
0,07684615,1,15816E-05,0,999,-0,8540169,0,999,0,03222705,0,999,-0,1047379,0,07684615,1,292439E-05,0,999,-0,9627832,0,999,0,4390936,0,999,-0,1289082
0,07736538,1,19173E-05,1,00575,-0,8419318,1,00575,0,004028382,1,00575,-0,09668116,0,07736538,1,309224E-05,1,00575,-0,9386129,1,00575,0,443122,1,00575,-0,1168231
0,07788461,1,359579E-05,1,0125,-0,833875,1,0125,-0,01611353,1,0125,-0,1007095,0,07788461,1,326009E-05,1,0125,-0,9063858,1,0125,0,4592355,1,0125,-0,1168231
0,07840385,1,393149E-05,1,01925,-0,8258182,1,01925,-0,02819867,1,01925,-0,1087663,0,07840385,1,225299E-05,1,01925,-0,8781872,1,01925,0,4672923,1,01925,-0,1087663
0,07892308,1,426719E-05,1,026,-0,8097047,1,026,-0,02819867,1,026,-0,1127947,0,07892308,1,376364E-05,1,026,-0,8580453,1,026,0,4632639,1,026,-0,09668116
0,07944231,1,661708E-05,1,03275,-0,8056763,1,03275,-0,02014191,1,03275,-0,09668116,0,07944231,1,594568E-05,1,03275,-0,8540169,1,03275,0,4632639,1,03275,-0,07653925
0,07996154,1,812772E-05,1,0395,-0,8056763,1,0395,-0,01208515,1,0395,-0,08459602,0,07996154,1,560998E-05,1,0395,-0,8499885,1,0395,0,4471503,1,0395,-0,05236896
0,08048077,1,812772E-05,1,04625,-0,8137331,1,04625,0,03222705,1,04625,-0,0886244,0,08048077,1,443503E-05,1,04625,-0,8620737,1,04625,0,4270085,1,04625,-0,03625543
0,081,1,812772E-05,1,053,-0,8419318,1,053,0,0886244,1,053,-0,1087663,0,081,1,326009E-05,1,053,-0,8741588,1,053,0,4108949,1,053,-0,02417029
0,08151923,1,913481E-05,1,05975,-0,8580453,1,05975,0,1248798,1,05975,-0,136965,0,08151923,1,174945E-05,1,05975,-0,8902723,1,05975,0,4068666,1,05975,-0,01208515
0,08203846,2,030976E-05,1,0665,-0,866102,1,0665,0,136965,1,0665,-0,1409934,0,08203846,9,735257E-06,1,0665,-0,9063858,1,0665,0,4149233,1,0665,-0,01208515
0,08255769,1,896696E-05,1,07325,-0,8741588,1,07325,0,1208515,1,07325,-0,1248798,0,08255769,7,888914E-06,1,07325,-0,9144427,1,07325,0,4390936,1,07325,-0,02819867
0,08307692,1,661708E-05,1,08,-0,8822156,1,08,0,08459602,1,08,-0,1087663,0,08307692,5,539025E-06,1,08,-0,9104142,1,08,0,4672923,1,08,-0,04834058
0,08359616,1,728847E-05,1,08675,-0,8701304,1,08675,0,04834058,1,08675,-0,07653925,0,08359616,2,853437E-06,1,08675,-0,9104142,1,08675,0,5035477,1,08675,-0,07653925
0,08411539,1,712062E-05,1,0935,-0,8620737,1,0935,0,03222705,1,0935,-0,06445411,0,08411539,3,524834E-06,1,0935,-0,9023575,1,0935,0,527718,1,0935,-0,1047379
0,08463462,1,393149E-05,1,10025,-0,8459601,1,10025,0,01208515,1,10025,-0,06042573,0,08463462,3,860533E-06,1,10025,-0,8943007,1,10025,0,559945,1,10025,-0,1127947
0,08515385,9,231708E-06,1,107,-0,833875,1,107,-0,008056764,1,107,-0,06042573,0,08515385,2,349889E-06,1,107,-0,8701304,1,107,0,5639734,1,107,-0,1168231
0,08567308,4,867628E-06,1,11375,-0,8137331,1,11375,-0,01611353,1,11375,-0,06042573,0,08567308,8,392462E-07,1,11375,-0,833875,1,11375,0,5518883,1,11375,-0,1208515
0,08619231,3,524834E-06,1,1205,-0,8056763,1,1205,-0,02014191,1,1205,-0,07251087,0,08619231,5,035478E-07,1,1205,-0,8097047,1,1205,0,5317464,1,1205,-0,1208515
0,08671154,4,867628E-06,1,12725,-0,7935912,1,12725,-0,008056764,1,12725,-0,07653925,0,08671154,-1,174945E-06,1,12725,-0,7895628,1,12725,0,4874342,1,12725,-0,1168231
0,08723077,3,860533E-06,1,134,-0,7935912,1,134,0,004028382,1,134,-0,0886244,0,08723077,-1,510643E-06,1,134,-0,7815061,1,134,0,4511787,1,134,-0,1007095
0,08775,2,517739E-06,1,14075,-0,7895628,1,14075,0,02014191,1,14075,-0,1007095,0,08775,1,510643E-06,1,14075,-0,7935912,1,14075,0,4108949,1,14075,-0,08056764
0,08826923,3,524834E-06,1,1475,-0,801648,1,1475,0,04028382,1,1475,-0,1168231,0,08826923,3,860533E-06,1,1475,-0,8137331,1,1475,0,390753,1,1475,-0,06848249
0,08878846,4,196231E-06,1,15425,-0,801648,1,15425,0,06848249,1,15425,-0,1329366,0,08878846,5,035477E-06,1,15425,-0,8298466,1,15425,0,3786679,1,15425,-0,05639734
0,0893077,6,54612E-06,1,161,-0,8137331,1,161,0,0886244,1,161,-0,1409934,0,0893077,5,203327E-06,1,161,-0,8540169,1,161,0,3826963,1,161,-0,03222705
0,08982693,1,040665E-05,1,16775,-0,8217899,1,16775,0,1127947,1,16775,-0,1530785,0,08982693,4,531929E-06,1,16775,-0,866102,1,16775,0,3867247,1,16775,-0,01611353
0,09034616,1,107805E-05,1,1745,-0,8258182,1,1745,0,1248798,1,1745,-0,1611353,0,09034616,6,378271E-06,1,1745,-0,8781872,1,1745,0,4068666,1,1745,-0,02819867
0,09086539,1,05745E-05,1,18125,-0,8258182,1,18125,0,1329366,1,18125,-0,1530785,0,09086539,6,378271E-06,1,18125,-0,8862439,1,18125,0,4149233,1,18125,-0,02417029
0,09138462,1,05745E-05,1,188,-0,8298466,1,188,0,1208515,1,188,-0,136965,0,09138462,5,874724E-06,1,188,-0,8902723,1,188,0,4350652,1,188,-0,0443122
0,09190385,9,063859E-06,1,19475,-0,8298466,1,19475,0,1007095,1,19475,-0,1208515,0,09190385,7,385367E-06,1,19475,-0,8943007,1,19475,0,443122,1,19475,-0,04834058
0,09242308,8,89601E-06,1,2015,-0,8298466,1,2015,0,07653925,1,2015,-0,1047379,0,09242308,8,728161E-06,1,2015,-0,8902723,1,2015,0,4592355,1,2015,-0,06042573
0,09294231,1,09102E-05,1,20825,-0,8298466,1,20825,0,05639734,1,20825,-0,08056764,0,09294231,7,553216E-06,1,20825,-0,8701304,1,20825,0,4713207,1,20825,-0,06848249
0,09346154,1,174945E-05,1,215,-0,8298466,1,215,0,02819867,1,215,-0,06042573,0,09346154,8,392462E-06,1,215,-0,8499885,1,215,0,4914626,1,215,-0,07653925
0,09398077,1,15816E-05,1,22175,-0,833875,1,22175,0,008056764,1,22175,-0,04028382,0,09398077,1,258869E-05,1,22175,-0,8298466,1,22175,0,5075761,1,22175,-0,06848249
0,0945,1,258869E-05,1,2285,-0,8298466,1,2285,0,1,2285,-0,02417029,0,0945,1,426719E-05,1,2285,-0,8177615,1,2285,0,5236896,1,2285,-0,06445411
0,09501923,1,292439E-05,1,23525,-0,8217899,1,23525,-0,008056764,1,23525,-0,01611353,0,09501923,1,409934E-05,1,23525,-0,801648,1,23525,0,5357748,1,23525,-0,06042573
0,09553846,1,208515E-05,1,242,-0,801648,1,242,-0,01208515,1,242,-0,01208515,0,09553846,1,594568E-05,1,242,-0,7855344,1,242,0,5438315,1,242,-0,05639734
0,09605769,1,05745E-05,1,24875,-0,7734493,1,24875,-0,008056764,1,24875,-0,01208515,0,09605769,1,695277E-05,1,24875,-0,7734493,1,24875,0,5478599,1,24875,-0,04834058
0,09657692,8,392462E-06,1,2555,-0,749279,1,2555,0,1,2555,-0,02014191,0,09657692,1,258869E-05,1,2555,-0,7935912,1,2555,0,527718,1,2555,-0,04028382
0,09709615,5,874724E-06,1,26225,-0,7371938,1,26225,0,01611353,1,26225,-0,04028382,0,09709615,8,392462E-06,1,26225,-0,7976196,1,26225,0,5075761,1,26225,-0,02417029
0,09761538,6,54612E-06,1,269,-0,7251087,1,269,0,03625543,1,269,-0,05639734,0,09761538,9,567407E-06,1,269,-0,801648,1,269,0,4753491,1,269,-0,01208515
0,09813461,9,903106E-06,1,27575,-0,7251087,1,27575,0,04834058,1,27575,-0,07251087,0,09813461,9,735257E-06,1,27575,-0,8097047,1,27575,0,4471503,1,27575,-0,01208515
0,09865385,1,09102E-05,1,2825,-0,7331654,1,2825,0,06042573,1,2825,-0,08459602,0,09865385,7,888914E-06,1,2825,-0,801648,1,2825,0,4149233,1,2825,-0,01611353
0,09917308,1,007095E-05,1,28925,-0,7452506,1,28925,0,06042573,1,28925,-0,0886244,0,09917308,8,224613E-06,1,28925,-0,7976196,1,28925,0,390753,1,28925,-0,02819867
0,09969231,9,903106E-06,1,296,-0,7533074,1,296,0,05639734,1,296,-0,09265278,0,09969231,8,89601E-06,1,296,-0,7976196,1,296,0,3786679,1,296,-0,04028382
0,1002115,1,208515E-05,1,30275,-0,7653925,1,30275,0,05236896,1,30275,-0,08459602,0,1002115,8,89601E-06,1,30275,-0,801648,1,30275,0,3826963,1,30275,-0,04834058
0,1007308,1,393149E-05,1,3095,-0,7734493,1,3095,0,05236896,1,3095,-0,0886244,0,1007308,1,09102E-05,1,3095,-0,8056763,1,3095,0,3988098,1,3095,-0,04028382
0,10125,1,393149E-05,1,31625,-0,7935912,1,31625,0,05236896,1,31625,-0,07653925,0,10125,1,12459E-05,1,31625,-0,8137331,1,31625,0,4310368,1,31625,-0,03222705
0,1017692,1,292439E-05,1,323,-0,8177615,1,323,0,04028382,1,323,-0,07251087,0,1017692,8,89601E-06,1,323,-0,8217899,1,323,0,4672923,1,323,-0,02819867
0,1022885,1,19173E-05,1,32975,-0,8217899,1,32975,0,0443122,1,32975,-0,06445411,0,1022885,8,560311E-06,1,32975,-0,8258182,1,32975,0,4995193,1,32975,-0,03222705
0,1028077,1,174945E-05,1,3365,-0,8379034,1,3365,0,03625543,1,3365,-0,05236896,0,1028077,1,05745E-05,1,3365,-0,833875,1,3365,0,527718,1,3365,-0,0443122
0,1033269,1,309224E-05,1,34325,-0,8379034,1,34325,0,03625543,1,34325,-0,05236896,0,1033269,1,05745E-05,1,34325,-0,8620737,1,34325,0,527718,1,34325,-0,05236896
0,1038462,1,460288E-05,1,35,-0,8419318,1,35,0,02417029,1,35,-0,05236896,0,1038462,9,903106E-06,1,35,-0,8862439,1,35,0,4995193,1,35,-0,05236896
0,1043654,1,661708E-05,1,35675,-0,8419318,1,35675,0,02819867,1,35675,-0,06042573,0,1043654,9,399557E-06,1,35675,-0,8983291,1,35675,0,4713207,1,35675,-0,05639734
0,1048846,1,628138E-05,1,3635,-0,8298466,1,3635,0,02819867,1,3635,-0,07653925,0,1048846,9,567407E-06,1,3635,-0,8983291,1,3635,0,4310368,1,3635,-0,05236896
0,1054038,1,493858E-05,1,37025,-0,8217899,1,37025,0,03625543,1,37025,-0,0886244,0,1054038,1,040665E-05,1,37025,-0,8983291,1,37025,0,4028382,1,37025,-0,06445411
0,1059231,1,728847E-05,1,377,-0,8097047,1,377,0,04834058,1,377,-0,1047379,0,1059231,9,903106E-06,1,377,-0,8902723,1,377,0,3786679,1,377,-0,07653925
0,1064423,2,131685E-05,1,38375,-0,7935912,1,38375,0,06042573,1,38375,-0,1168231,0,1064423,7,049668E-06,1,38375,-0,8741588,1,38375,0,3706111,1,38375,-0,07653925
0,1069615,2,232395E-05,1,3905,-0,7774777,1,3905,0,06848249,1,3905,-0,1329366,0,1069615,4,699778E-06,1,3905,-0,866102,1,3905,0,3665827,1,3905,-0,08056764
0,1074808,1,963836E-05,1,39725,-0,7734493,1,39725,0,08056764,1,39725,-0,136965,0,1074808,5,874724E-06,1,39725,-0,8620737,1,39725,0,3665827,1,39725,-0,07653925
0,108,1,762417E-05,1,404,-0,7774777,1,404,0,09265278,1,404,-0,136965,0,108,7,049668E-06,1,404,-0,8620737,1,404,0,3786679,1,404,-0,07251087
0,1085192,1,779202E-05,1,41075,-0,7855344,1,41075,0,09668116,1,41075,-0,1409934,0,1085192,1,02388E-05,1,41075,-0,8580453,1,41075,0,390753,1,41075,-0,06445411
0,1090385,1,896696E-05,1,4175,-0,7976196,1,4175,0,09668116,1,4175,-0,1409934,0,1090385,1,393149E-05,1,4175,-0,8580453,1,4175,0,3988098,1,4175,-0,05639734
0,1095577,2,030976E-05,1,42425,-0,8097047,1,42425,0,1007095,1,42425,-0,1329366,0,1095577,1,560998E-05,1,42425,-0,866102,1,42425,0,4068666,1,42425,-0,04028382
0,1100769,1,997406E-05,1,431,-0,8217899,1,431,0,08459602,1,431,-0,1168231,0,1100769,1,393149E-05,1,431,-0,8741588,1,431,0,3988098,1,431,-0,02819867
0,1105962,1,661708E-05,1,43775,-0,8217899,1,43775,0,07653925,1,43775,-0,09668116,0,1105962,1,05745E-05,1,43775,-0,8741588,1,43775,0,390753,1,43775,-0,02014191
0,1111154,1,208515E-05,1,4445,-0,8298466,1,4445,0,06848249,1,4445,-0,08459602,0,1111154,6,378271E-06,1,4445,-0,8741588,1,4445,0,3746395,1,4445,-0,01611353
0,1116346,6,881819E-06,1,45125,-0,8379034,1,45125,0,06848249,1,45125,-0,07653925,0,1116346,4,36408E-06,1,45125,-0,8741588,1,45125,0,3665827,1,45125,-0,01208515
0,1121539,2,349889E-06,1,458,-0,8379034,1,458,0,07251087,1,458,-0,08056764,0,1121539,3,189135E-06,1,458,-0,8781872,1,458,0,3786679,1,458,-0,008056764
0,1126731,-5,035478E-07,1,46475,-0,8540169,1,46475,0,08056764,1,46475,-0,08056764,0,1126731,3,524834E-06,1,46475,-0,8862439,1,46475,0,3826963,1,46475,-0,01208515
0,1131923,1,678492E-06,1,4715,-0,8620737,1,4715,0,09668116,1,4715,-0,08459602,0,1131923,6,378271E-06,1,4715,-0,8943007,1,4715,0,390753,1,4715,-0,008056764
0,1137115,6,54612E-06,1,47825,-0,8620737,1,47825,0,1087663,1,47825,-0,09265278,0,1137115,9,063859E-06,1,47825,-0,8943007,1,47825,0,4149233,1,47825,-0,02014191
0,1142308,9,399557E-06,1,485,-0,8540169,1,485,0,1127947,1,485,-0,09265278,0,1142308,1,15816E-05,1,485,-0,8902723,1,485,0,4270085,1,485,-0,02819867
0,11475,9,903106E-06,1,49175,-0,8379034,1,49175,0,09668116,1,49175,-0,09265278,0,11475,1,225299E-05,1,49175,-0,8902723,1,49175,0,4350652,1,49175,-0,03222705
0,1152692,8,89601E-06,1,4985,-0,8217899,1,4985,0,07653925,1,4985,-0,0886244,0,1152692,1,12459E-05,1,4985,-0,8781872,1,4985,0,4229801,1,4985,-0,03625543
0,1157885,7,888914E-06,1,50525,-0,8056763,1,50525,0,06445411,1,50525,-0,08056764,0,1157885,9,063859E-06,1,50525,-0,8620737,1,50525,0,4149233,1,50525,-0,04028382
0,1163077,9,231708E-06,1,512,-0,7935912,1,512,0,04028382,1,512,-0,07251087,0,1163077,6,54612E-06,1,512,-0,8499885,1,512,0,4028382,1,512,-0,03222705
0,1168269,1,292439E-05,1,51875,-0,7895628,1,51875,0,03625543,1,51875,-0,06445411,0,1168269,6,378271E-06,1,51875,-0,8298466,1,51875,0,3988098,1,51875,-0,03222705
0,1173462,1,493858E-05,1,5255,-0,7976196,1,5255,0,02014191,1,5255,-0,06848249,0,1173462,9,063859E-06,1,5255,-0,8217899,1,5255,0,3988098,1,5255,-0,0443122
0,1178654,1,409934E-05,1,53225,-0,8137331,1,53225,0,01208515,1,53225,-0,06848249,0,1178654,1,040665E-05,1,53225,-0,8298466,1,53225,0,4068666,1,53225,-0,03222705
0,1183846,1,225299E-05,1,539,-0,833875,1,539,0,02417029,1,539,-0,07251087,0,1183846,9,231708E-06,1,539,-0,8459601,1,539,0,4108949,1,539,-0,04028382
0,1189038,1,05745E-05,1,54575,-0,8379034,1,54575,0,03625543,1,54575,-0,07251087,0,1189038,1,007095E-05,1,54575,-0,866102,1,54575,0,4229801,1,54575,-0,04028382
0,1194231,1,19173E-05,1,5525,-0,8419318,1,5525,0,05639734,1,5525,-0,08459602,0,1194231,1,007095E-05,1,5525,-0,8822156,1,5525,0,4229801,1,5525,-0,03625543
0,1199423,1,644923E-05,1,55925,-0,8419318,1,55925,0,0886244,1,55925,-0,08459602,0,1199423,8,224613E-06,1,55925,-0,8983291,1,55925,0,4229801,1,55925,-0,02819867
0,1204615,1,896696E-05,1,566,-0,833875,1,566,0,1087663,1,566,-0,09265278,0,1204615,7,049668E-06,1,566,-0,9063858,1,566,0,4149233,1,566,-0,03625543
0,1209808,1,829557E-05,1,57275,-0,8217899,1,57275,0,1248798,1,57275,-0,1047379,0,1209808,7,721065E-06,1,57275,-0,9023575,1,57275,0,4149233,1,57275,-0,04028382
0,1215,1,963836E-05,1,5795,-0,8056763,1,5795,0,1329366,1,5795,-0,1127947,0,1215,7,888914E-06,1,5795,-0,9023575,1,5795,0,3988098,1,5795,-0,03222705
0,1220192,2,131685E-05,1,58625,-0,7976196,1,58625,0,1409934,1,58625,-0,1168231,0,1220192,7,553216E-06,1,58625,-0,8862439,1,58625,0,3867247,1,58625,-0,02417029
0,1225385,1,963836E-05,1,593,-0,801648,1,593,0,136965,1,593,-0,1208515,0,1225385,7,721065E-06,1,593,-0,8701304,1,593,0,3665827,1,593,-0,02417029
0,1230577,1,493858E-05,1,59975,-0,7976196,1,59975,0,1329366,1,59975,-0,1168231,0,1230577,7,721065E-06,1,59975,-0,8620737,1,59975,0,3504692,1,59975,-0,02819867
0,1235769,1,309224E-05,1,6065,-0,8056763,1,6065,0,1168231,1,6065,-0,1208515,0,1235769,3,524834E-06,1,6065,-0,8580453,1,6065,0,3464408,1,6065,-0,02417029
0,1240962,1,493858E-05,1,61325,-0,8177615,1,61325,0,1007095,1,61325,-0,1289082,0,1240962,1,342794E-06,1,61325,-0,8580453,1,61325,0,3504692,1,61325,-0,02014191
0,1246154,1,695277E-05,1,62,-0,8177615,1,62,0,09265278,1,62,-0,1289082,0,1246154,4,699778E-06,1,62,-0,866102,1,62,0,3544976,1,62,-0,02819867
0,1251346,1,678492E-05,1,62675,-0,8258182,1,62675,0,08056764,1,62675,-0,1248798,0,1251346,9,063859E-06,1,62675,-0,8701304,1,62675,0,3665827,1,62675,-0,0443122
0,1256538,1,594568E-05,1,6335,-0,8258182,1,6335,0,07251087,1,6335,-0,1168231,0,1256538,9,567407E-06,1,6335,-0,8741588,1,6335,0,3746395,1,6335,-0,0443122
0,1261731,1,19173E-05,1,64025,-0,8258182,1,64025,0,07251087,1,64025,-0,1087663,0,1261731,7,049668E-06,1,64025,-0,8862439,1,64025,0,3947814,1,64025,-0,05639734
0,1266923,7,888914E-06,1,647,-0,8298466,1,647,0,08056764,1,647,-0,1087663,0,1266923,4,196231E-06,1,647,-0,8943007,1,647,0,4068666,1,647,-0,04834058
0,1272115,6,54612E-06,1,65375,-0,8379034,1,65375,0,08056764,1,65375,-0,1007095,0,1272115,1,846342E-06,1,65375,-0,9023575,1,65375,0,4270085,1,65375,-0,04834058
0,1277308,5,539025E-06,1,6605,-0,8379034,1,6605,0,0886244,1,6605,-0,09265278,0,1277308,3,524834E-06,1,6605,-0,9063858,1,6605,0,4350652,1,6605,-0,04028382
0,12825,4,531929E-06,1,66725,-0,833875,1,66725,0,09668116,1,66725,-0,0886244,0,12825,4,36408E-06,1,66725,-0,9023575,1,66725,0,4350652,1,66725,-0,04834058
0,1287692,3,189135E-06,1,674,-0,8298466,1,674,0,0886244,1,674,-0,09265278,0,1287692,5,203327E-06,1,674,-0,9023575,1,674,0,4229801,1,674,-0,05639734
0,1292885,-6,713969E-07,1,68075,-0,8177615,1,68075,0,09265278,1,68075,-0,0886244,0,1292885,8,224613E-06,1,68075,-0,8902723,1,68075,0,4028382,1,68075,-0,04834058
0,1298077,-3,860533E-06,1,6875,-0,801648,1,6875,0,08459602,1,6875,-0,1007095,0,1298077,8,728161E-06,1,6875,-0,8741588,1,6875,0,3746395,1,6875,-0,0443122
0,1303269,-3,189135E-06,1,69425,-0,7976196,1,69425,0,07251087,1,69425,-0,1007095,0,1303269,8,224613E-06,1,69425,-0,8620737,1,69425,0,3625543,1,69425,-0,04028382
0,1308462,1,678492E-07,1,701,-0,8056763,1,701,0,06848249,1,701,-0,1168231,0,1308462,7,888914E-06,1,701,-0,8459601,1,701,0,3504692,1,701,-0,02819867
0,1313654,3,692683E-06,1,70775,-0,8097047,1,70775,0,07251087,1,70775,-0,1248798,0,1313654,8,560311E-06,1,70775,-0,8459601,1,70775,0,3464408,1,70775,-0,02417029
0,1318846,5,874724E-06,1,7145,-0,8056763,1,7145,0,07653925,1,7145,-0,1248798,0,1318846,9,231708E-06,1,7145,-0,8540169,1,7145,0,3504692,1,7145,-0,02014191
0,1324039,5,035477E-06,1,72125,-0,8137331,1,72125,0,08056764,1,72125,-0,1329366,0,1324039,1,15816E-05,1,72125,-0,8620737,1,72125,0,3625543,1,72125,-0,03625543
0,1329231,5,035477E-06,1,728,-0,8177615,1,728,0,08056764,1,728,-0,1289082,0,1329231,1,527428E-05,1,728,-0,8701304,1,728,0,3706111,1,728,-0,05236896
0,1334423,7,721065E-06,1,73475,-0,8258182,1,73475,0,0886244,1,73475,-0,1289082,0,1334423,1,426719E-05,1,73475,-0,8862439,1,73475,0,3867247,1,73475,-0,0443122
0,1339615,1,05745E-05,1,7415,-0,8298466,1,7415,0,09668116,1,7415,-0,1208515,0,1339615,9,903106E-06,1,7415,-0,8902723,1,7415,0,4028382,1,7415,-0,04834058
0,1344808,1,15816E-05,1,74825,-0,833875,1,74825,0,1007095,1,74825,-0,1127947,0,1344808,8,392462E-06,1,74825,-0,8943007,1,74825,0,4350652,1,74825,-0,05639734
0,135,1,225299E-05,1,755,-0,8379034,1,755,0,1007095,1,755,-0,1047379,0,135,1,007095E-05,1,755,-0,8943007,1,755,0,4511787,1,755,-0,06445411
0,1355192,1,242084E-05,1,76175,-0,8258182,1,76175,0,0886244,1,76175,-0,09265278,0,1355192,1,09102E-05,1,76175,-0,8943007,1,76175,0,4672923,1,76175,-0,06445411
0,1360385,1,141375E-05,1,7685,-0,8177615,1,7685,0,07653925,1,7685,-0,08459602,0,1360385,9,567407E-06,1,7685,-0,8902723,1,7685,0,4632639,1,7685,-0,06848249
0,1365577,1,02388E-05,1,77525,-0,8137331,1,77525,0,06445411,1,77525,-0,09265278,0,1365577,8,392462E-06,1,77525,-0,8781872,1,77525,0,443122,1,77525,-0,06848249
0,1370769,9,903106E-06,1,782,-0,801648,1,782,0,04834058,1,782,-0,09265278,0,1370769,6,881819E-06,1,782,-0,8620737,1,782,0,4229801,1,782,-0,06445411
0,1375962,1,12459E-05,1,78875,-0,8097047,1,78875,0,04028382,1,78875,-0,09668116,0,1375962,6,210422E-06,1,78875,-0,8419318,1,78875,0,4108949,1,78875,-0,05639734
0,1381154,1,174945E-05,1,7955,-0,8217899,1,7955,0,03222705,1,7955,-0,1047379,0,1381154,7,553216E-06,1,7955,-0,8419318,1,7955,0,3988098,1,7955,-0,06042573
0,1386346,1,05745E-05,1,80225,-0,8379034,1,80225,0,03625543,1,80225,-0,1047379,0,1386346,7,888914E-06,1,80225,-0,8459601,1,80225,0,4028382,1,80225,-0,05639734
0,1391539,1,05745E-05,1,809,-0,8419318,1,809,0,0443122,1,809,-0,1087663,0,1391539,9,231708E-06,1,809,-0,8580453,1,809,0,3988098,1,809,-0,05236896
0,1396731,8,392462E-06,1,81575,-0,8379034,1,81575,0,06042573,1,81575,-0,1127947,0,1396731,1,174945E-05,1,81575,-0,8741588,1,81575,0,4068666,1,81575,-0,05639734
0,1401923,5,203327E-06,1,8225,-0,833875,1,8225,0,06848249,1,8225,-0,1168231,0,1401923,1,19173E-05,1,8225,-0,8902723,1,8225,0,4028382,1,8225,-0,06042573
0,1407115,5,035477E-06,1,82925,-0,8217899,1,82925,0,08056764,1,82925,-0,1127947,0,1407115,1,174945E-05,1,82925,-0,9063858,1,82925,0,3988098,1,82925,-0,05236896
0,1412308,5,874724E-06,1,836,-0,8177615,1,836,0,08459602,1,836,-0,1168231,0,1412308,9,735257E-06,1,836,-0,9104142,1,836,0,3867247,1,836,-0,04834058
0,14175,5,203327E-06,1,84275,-0,8137331,1,84275,0,08459602,1,84275,-0,1168231,0,14175,5,203327E-06,1,84275,-0,8983291,1,84275,0,3826963,1,84275,-0,05236896
0,1422692,3,524834E-06,1,8495,-0,8137331,1,8495,0,08459602,1,8495,-0,1208515,0,1422692,3,189135E-06,1,8495,-0,8902723,1,8495,0,3786679,1,8495,-0,04834058
0,1427885,4,196231E-06,1,85625,-0,8137331,1,85625,0,08459602,1,85625,-0,1087663,0,1427885,4,531929E-06,1,85625,-0,8781872,1,85625,0,3706111,1,85625,-0,04834058
0,1433077,7,553216E-06,1,863,-0,8177615,1,863,0,08056764,1,863,-0,1047379,0,1433077,6,210422E-06,1,863,-0,8701304,1,863,0,3786679,1,863,-0,0443122
0,1438269,1,12459E-05,1,86975,-0,8258182,1,86975,0,08056764,1,86975,-0,1047379,0,1438269,8,224613E-06,1,86975,-0,8701304,1,86975,0,3947814,1,86975,-0,03222705
0,1443462,1,258869E-05,1,8765,-0,8258182,1,8765,0,08056764,1,8765,-0,1127947,0,1443462,7,888914E-06,1,8765,-0,8580453,1,8765,0,4068666,1,8765,-0,03625543
0,1448654,1,242084E-05,1,88325,-0,8298466,1,88325,0,07251087,1,88325,-0,1208515,0,1448654,7,721065E-06,1,88325,-0,8540169,1,88325,0,4149233,1,88325,-0,03222705
0,1453846,1,309224E-05,1,89,-0,8298466,1,89,0,06445411,1,89,-0,1168231,0,1453846,9,903106E-06,1,89,-0,8580453,1,89,0,4310368,1,89,-0,04028382
0,1459038,1,443503E-05,1,89675,-0,8177615,1,89675,0,06042573,1,89675,-0,1047379,0,1459038,1,02388E-05,1,89675,-0,8701304,1,89675,0,4270085,1,89675,-0,04834058
0,1464231,1,426719E-05,1,9035,-0,8056763,1,9035,0,06445411,1,9035,-0,1007095,0,1464231,8,728161E-06,1,9035,-0,866102,1,9035,0,4108949,1,9035,-0,05236896
0,1469423,1,393149E-05,1,91025,-0,8097047,1,91025,0,05236896,1,91025,-0,1007095,0,1469423,8,89601E-06,1,91025,-0,8701304,1,91025,0,3988098,1,91025,-0,06445411
0,1474615,1,628138E-05,1,917,-0,8137331,1,917,0,05639734,1,917,-0,1047379,0,1474615,9,399557E-06,1,917,-0,8781872,1,917,0,3867247,1,917,-0,06445411
0,1479808,1,913481E-05,1,92375,-0,8217899,1,92375,0,05236896,1,92375,-0,1007095,0,1479808,8,560311E-06,1,92375,-0,8781872,1,92375,0,3947814,1,92375,-0,06848249
0,1485,1,863126E-05,1,9305,-0,833875,1,9305,0,05236896,1,9305,-0,1007095,0,1485,7,217517E-06,1,9305,-0,8822156,1,9305,0,4068666,1,9305,-0,06445411
0,1490192,1,544213E-05,1,93725,-0,8419318,1,93725,0,05639734,1,93725,-0,1047379,0,1490192,7,888914E-06,1,93725,-0,8822156,1,93725,0,4149233,1,93725,-0,04834058
0,1495385,1,326009E-05,1,944,-0,8459601,1,944,0,06445411,1,944,-0,1087663,0,1495385,7,721065E-06,1,944,-0,8862439,1,944,0,4189517,1,944,-0,0443122
0,1500577,1,15816E-05,1,95075,-0,8459601,1,95075,0,07251087,1,95075,-0,1047379,0,1500577,7,553216E-06,1,95075,-0,8781872,1,95075,0,4270085,1,95075,-0,03625543
0,1505769,1,225299E-05,1,9575,-0,8379034,1,9575,0,07251087,1,9575,-0,1087663,0,1505769,8,560311E-06,1,9575,-0,8822156,1,9575,0,4310368,1,9575,-0,04028382
0,1510962,1,644923E-05,1,96425,-0,833875,1,96425,0,07251087,1,96425,-0,1047379,0,1510962,8,560311E-06,1,96425,-0,8862439,1,96425,0,4270085,1,96425,-0,04028382
0,1516154,1,896696E-05,1,971,-0,8258182,1,971,0,06848249,1,971,-0,1087663,0,1516154,7,049668E-06,1,971,-0,8902723,1,971,0,4108949,1,971,-0,0443122
0,1521346,1,594568E-05,1,97775,-0,8137331,1,97775,0,06848249,1,97775,-0,1087663,0,1521346,7,888914E-06,1,97775,-0,8862439,1,97775,0,390753,1,97775,-0,04834058
0,1526538,9,903106E-06,1,9845,-0,8097047,1,9845,0,07653925,1,9845,-0,1087663,0,1526538,1,107805E-05,1,9845,-0,8781872,1,9845,0,3746395,1,9845,-0,05236896
0,1531731,4,196231E-06,1,99125,-0,8137331,1,99125,0,07251087,1,99125,-0,1047379,0,1531731,1,527428E-05,1,99125,-0,8701304,1,99125,0,3665827,1,99125,-0,04834058
0,1536923,2,853437E-06,1,998,-0,8258182,1,998,0,06848249,1,998,-0,1127947,0,1536923,1,829557E-05,1,998,-0,8701304,1,998,0,3706111,1,998,-0,0443122
0,1542115,6,210422E-06,2,00475,-0,8258182,2,00475,0,07251087,2,00475,-0,1127947,0,1542115,1,493858E-05,2,00475,-0,8701304,2,00475,0,3867247,2,00475,-0,02819867
0,1547308,8,560311E-06,2,0115,-0,8298466,2,0115,0,06848249,2,0115,-0,1127947,0,1547308,9,903106E-06,2,0115,-0,8822156,2,0115,0,3988098,2,0115,-0,04834058
0,15525,8,560311E-06,2,01825,-0,8298466,2,01825,0,07653925,2,01825,-0,1087663,0,15525,7,217517E-06,2,01825,-0,8781872,2,01825,0,4068666,2,01825,-0,04834058
0,1557692,6,54612E-06,2,025,-0,8258182,2,025,0,07251087,2,025,-0,1087663,0,1557692,7,888914E-06,2,025,-0,8862439,2,025,0,4108949,2,025,-0,05236896
0,1562885,5,539025E-06,2,03175,-0,8258182,2,03175,0,06445411,2,03175,-0,1208515,0,1562885,8,560311E-06,2,03175,-0,8822156,2,03175,0,4108949,2,03175,-0,05236896
0,1568077,6,210422E-06,2,0385,-0,8217899,2,0385,0,06042573,2,0385,-0,1127947,0,1568077,7,217517E-06,2,0385,-0,8741588,2,0385,0,4108949,2,0385,-0,05639734
0,1573269,7,888914E-06,2,04525,-0,8217899,2,04525,0,05236896,2,04525,-0,1047379,0,1573269,4,196231E-06,2,04525,-0,8741588,2,04525,0,4108949,2,04525,-0,06848249
0,1578462,1,12459E-05,2,052,-0,8217899,2,052,0,0443122,2,052,-0,1047379,0,1578462,1,007096E-06,2,052,-0,8741588,2,052,0,4149233,2,052,-0,06848249
0,1583654,1,359579E-05,2,05875,-0,8217899,2,05875,0,0443122,2,05875,-0,1007095,0,1583654,2,18204E-06,2,05875,-0,8701304,2,05875,0,4189517,2,05875,-0,07653925
0,1588846,1,393149E-05,2,0655,-0,8217899,2,0655,0,04028382,2,0655,-0,1007095,0,1588846,4,196231E-06,2,0655,-0,866102,2,0655,0,4108949,2,0655,-0,07653925
0,1594038,1,326009E-05,2,07225,-0,8217899,2,07225,0,04028382,2,07225,-0,1087663,0,1594038,6,54612E-06,2,07225,-0,8620737,2,07225,0,4149233,2,07225,-0,07251087
0,1599231,1,326009E-05,2,079,-0,8217899,2,079,0,04834058,2,079,-0,1087663,0,1599231,6,54612E-06,2,079,-0,8580453,2,079,0,4229801,2,079,-0,07653925
0,1604423,1,594568E-05,2,08575,-0,8217899,2,08575,0,05639734,2,08575,-0,1047379,0,1604423,4,867628E-06,2,08575,-0,8620737,2,08575,0,4229801,2,08575,-0,06445411
0,1609615,2,030976E-05,2,0925,-0,8217899,2,0925,0,06445411,2,0925,-0,1047379,0,1609615,3,860533E-06,2,0925,-0,8701304,2,0925,0,4189517,2,0925,-0,05236896
0,1614808,2,18204E-05,2,09925,-0,8298466,2,09925,0,07251087,2,09925,-0,1208515,0,1614808,4,028382E-06,2,09925,-0,8822156,2,09925,0,4108949,2,09925,-0,04834058
0,162,1,963836E-05,2,106,-0,8379034,2,106,0,07653925,2,106,-0,1168231,0,162,4,028382E-06,2,106,-0,8822156,2,106,0,4028382,2,106,-0,04028382
0,1625192,1,560998E-05,2,11275,-0,8258182,2,11275,0,0886244,2,11275,-0,1208515,0,1625192,3,189135E-06,2,11275,-0,8862439,2,11275,0,3947814,2,11275,-0,04028382
0,1630385,1,326009E-05,2,1195,-0,8217899,2,1195,0,09668116,2,1195,-0,1208515,0,1630385,1,174945E-06,2,1195,-0,8862439,2,1195,0,3786679,2,1195,-0,0443122
0,1635577,1,12459E-05,2,12625,-0,8177615,2,12625,0,09668116,2,12625,-0,1248798,0,1635577,2,18204E-06,2,12625,-0,8902723,2,12625,0,3786679,2,12625,-0,0443122
0,1640769,9,063859E-06,2,133,-0,8177615,2,133,0,0886244,2,133,-0,1289082,0,1640769,3,524834E-06,2,133,-0,8983291,2,133,0,3746395,2,133,-0,05639734
0,1645962,8,392462E-06,2,13975,-0,8217899,2,13975,0,08056764,2,13975,-0,1248798,0,1645962,2,685588E-06,2,13975,-0,8943007,2,13975,0,3826963,2,13975,-0,05639734
0,1651154,8,224613E-06,2,1465,-0,8258182,2,1465,0,07251087,2,1465,-0,1329366,0,1651154,4,867628E-06,2,1465,-0,8943007,2,1465,0,390753,2,1465,-0,05639734
0,1656346,8,392462E-06,2,15325,-0,833875,2,15325,0,06848249,2,15325,-0,1289082,0,1656346,8,224613E-06,2,15325,-0,8902723,2,15325,0,4068666,2,15325,-0,06042573
0,1661538,8,560311E-06,2,16,-0,8419318,2,16,0,06042573,2,16,-0,1208515,0,1661538,1,107805E-05,2,16,-0,8902723,2,16,0,4149233,2,16,-0,06042573
0,1666731,7,888914E-06,2,16675,-0,833875,2,16675,0,05236896,2,16675,-0,1127947,0,1666731,1,242084E-05,2,16675,-0,8943007,2,16675,0,4270085,2,16675,-0,06445411
0,1671923,7,721065E-06,2,1735,-0,833875,2,1735,0,0443122,2,1735,-0,1047379,0,1671923,1,258869E-05,2,1735,-0,8902723,2,1735,0,4310368,2,1735,-0,06445411
0,1677115,7,721065E-06,2,18025,-0,8379034,2,18025,0,0443122,2,18025,-0,1007095,0,1677115,1,292439E-05,2,18025,-0,8822156,2,18025,0,4189517,2,18025,-0,06848249
0,1682308,2,517739E-06,2,187,-0,8419318,2,187,0,0443122,2,187,-0,09668116,0,1682308,1,376364E-05,2,187,-0,8741588,2,187,0,4108949,2,187,-0,06445411
0,16875,-5,539025E-06,2,19375,-0,8379034,2,19375,0,04834058,2,19375,-0,09265278,0,16875,1,225299E-05,2,19375,-0,8701304,2,19375,0,4028382,2,19375,-0,06445411
0,1692692,-1,15816E-05,2,2005,-0,833875,2,2005,0,04834058,2,2005,-0,09668116,0,1692692,1,12459E-05,2,2005,-0,8741588,2,2005,0,4028382,2,2005,-0,06848249
0,1697885,-1,544213E-05,2,20725,-0,8298466,2,20725,0,05639734,2,20725,-0,1047379,0,1697885,1,326009E-05,2,20725,-0,8781872,2,20725,0,4068666,2,20725,-0,06042573
0,1703077,-1,795987E-05,2,214,-0,833875,2,214,0,06445411,2,214,-0,1168231,0,1703077,1,527428E-05,2,214,-0,8822156,2,214,0,4028382,2,214,-0,06042573
0,1708269,-1,577783E-05,2,22075,-0,8217899,2,22075,0,06848249,2,22075,-0,1289082,0,1708269,1,544213E-05,2,22075,-0,8822156,2,22075,0,4068666,2,22075,-0,06445411
0,1713462,-1,02388E-05,2,2275,-0,8177615,2,2275,0,06445411,2,2275,-0,136965,0,1713462,1,493858E-05,2,2275,-0,8862439,2,2275,0,3988098,2,2275,-0,06445411
0,1718654,-6,210422E-06,2,23425,-0,8177615,2,23425,0,06445411,2,23425,-0,1450217,0,1718654,1,560998E-05,2,23425,-0,8822156,2,23425,0,390753,2,23425,-0,06445411
0,1723846,-4,196231E-06,2,241,-0,8217899,2,241,0,06445411,2,241,-0,1490501,0,1723846,1,594568E-05,2,241,-0,8822156,2,241,0,3826963,2,241,-0,07251087
0,1729039,-2,853437E-06,2,24775,-0,8177615,2,24775,0,06445411,2,24775,-0,1329366,0,1729039,1,644923E-05,2,24775,-0,8822156,2,24775,0,3786679,2,24775,-0,06848249
0,1734231,8,392462E-07,2,2545,-0,8258182,2,2545,0,07251087,2,2545,-0,1248798,0,1734231,1,510643E-05,2,2545,-0,8701304,2,2545,0,3826963,2,2545,-0,06445411
0,1739423,5,035477E-06,2,26125,-0,8419318,2,26125,0,07653925,2,26125,-0,1168231,0,1739423,1,12459E-05,2,26125,-0,8741588,2,26125,0,390753,2,26125,-0,06042573
0,1744615,5,706875E-06,2,268,-0,8499885,2,268,0,08056764,2,268,-0,1208515,0,1744615,7,217517E-06,2,268,-0,8822156,2,268,0,4108949,2,268,-0,05639734
0,1749808,5,539025E-06,2,27475,-0,833875,2,27475,0,08459602,2,27475,-0,1127947,0,1749808,4,867628E-06,2,27475,-0,8902723,2,27475,0,4270085,2,27475,-0,05639734
0,1755,7,385367E-06,2,2815,-0,8217899,2,2815,0,07653925,2,2815,-0,1168231,0,1755,5,539025E-06,2,2815,-0,9023575,2,2815,0,4310368,2,2815,-0,06042573
0,1760192,8,560311E-06,2,28825,-0,8137331,2,28825,0,07653925,2,28825,-0,1127947,0,1760192,7,888914E-06,2,28825,-0,8902723,2,28825,0,4270085,2,28825,-0,05236896
0,1765385,8,224613E-06,2,295,-0,8097047,2,295,0,06445411,2,295,-0,1248798,0,1765385,8,224613E-06,2,295,-0,8822156,2,295,0,4108949,2,295,-0,05639734
0,1770577,1,007095E-05,2,30175,-0,8137331,2,30175,0,05639734,2,30175,-0,1208515,0,1770577,6,71397E-06,2,30175,-0,8741588,2,30175,0,3988098,2,30175,-0,06042573
0,1775769,1,762417E-05,2,3085,-0,8217899,2,3085,0,0443122,2,3085,-0,1289082,0,1775769,5,874724E-06,2,3085,-0,8701304,2,3085,0,390753,2,3085,-0,06848249
0,1780962,3,004501E-05,2,31525,-0,8258182,2,31525,0,04028382,2,31525,-0,1208515,0,1780962,5,539025E-06,2,31525,-0,8701304,2,31525,0,3988098,2,31525,-0,06848249
0,1786154,4,280156E-05,2,322,-0,833875,2,322,0,03222705,2,322,-0,1208515,0,1786154,4,196231E-06,2,322,-0,866102,2,322,0,3947814,2,322,-0,07251087
0,1791346,5,354391E-05,2,32875,-0,8298466,2,32875,0,03222705,2,32875,-0,1248798,0,1791346,3,189135E-06,2,32875,-0,8741588,2,32875,0,4028382,2,32875,-0,06848249
0,1796539,5,807584E-05,2,3355,-0,8298466,2,3355,0,03222705,2,3355,-0,1127947,0,1796539,4,36408E-06,2,3355,-0,8862439,2,3355,0,3947814,2,3355,-0,06445411
0,1801731,5,958648E-05,2,34225,-0,8217899,2,34225,0,03222705,2,34225,-0,1168231,0,1801731,5,035477E-06,2,34225,-0,8822156,2,34225,0,3947814,2,34225,-0,06848249
0,1806923,6,025788E-05,2,349,-0,8056763,2,349,0,03625543,2,349,-0,1127947,0,1806923,5,203327E-06,2,349,-0,8862439,2,349,0,3867247,2,349,-0,07251087
0,1812115,6,092927E-05,2,35575,-0,801648,2,35575,0,0443122,2,35575,-0,1127947,0,1812115,7,217517E-06,2,35575,-0,8822156,2,35575,0,3826963,2,35575,-0,06848249
0,1817308,5,706874E-05,2,3625,-0,8097047,2,3625,0,05236896,2,3625,-0,1248798,0,1817308,1,107805E-05,2,3625,-0,8781872,2,3625,0,3826963,2,3625,-0,08459602
0,18225,5,119402E-05,2,36925,-0,8137331,2,36925,0,05236896,2,36925,-0,1127947,0,18225,1,460288E-05,2,36925,-0,8741588,2,36925,0,3826963,2,36925,-0,08459602
0,1827692,4,347295E-05,2,376,-0,8258182,2,376,0,05236896,2,376,-0,1168231,0,1827692,1,426719E-05,2,376,-0,8701304,2,376,0,3867247,2,376,-0,0886244
0,1832885,3,071641E-05,2,38275,-0,8298466,2,38275,0,06042573,2,38275,-0,1087663,0,1832885,1,460288E-05,2,38275,-0,866102,2,38275,0,3947814,2,38275,-0,06848249
0,1838077,1,896696E-05,2,3895,-0,8379034,2,3895,0,06848249,2,3895,-0,1127947,0,1838077,1,527428E-05,2,3895,-0,8620737,2,3895,0,4108949,2,3895,-0,05639734
0,1843269,1,05745E-05,2,39625,-0,8459601,2,39625,0,07653925,2,39625,-0,1208515,0,1843269,1,477073E-05,2,39625,-0,866102,2,39625,0,4189517,2,39625,-0,05639734
0,1848462,4,196231E-06,2,403,-0,8580453,2,403,0,08056764,2,403,-0,1289082,0,1848462,1,174945E-05,2,403,-0,8701304,2,403,0,4310368,2,403,-0,05639734
0,1853654,2,853437E-06,2,40975,-0,8580453,2,40975,0,08459602,2,40975,-0,136965,0,1853654,8,560311E-06,2,40975,-0,8862439,2,40975,0,4350652,2,40975,-0,05236896
0,1858846,4,531929E-06,2,4165,-0,8540169,2,4165,0,0886244,2,4165,-0,1450217,0,1858846,8,89601E-06,2,4165,-0,9063858,2,4165,0,4350652,2,4165,-0,06042573
0,1864039,5,035478E-07,2,42325,-0,8459601,2,42325,0,08459602,2,42325,-0,136965,0,1864039,9,903106E-06,2,42325,-0,9184711,2,42325,0,4229801,2,42325,-0,05639734
0,1869231,-9,063859E-06,2,43,-0,8379034,2,43,0,0886244,2,43,-0,1409934,0,1869231,9,063859E-06,2,43,-0,9144427,2,43,0,4189517,2,43,-0,06848249
0,1874423,-2,098116E-05,2,43675,-0,8298466,2,43675,0,09265278,2,43675,-0,136965,0,1874423,5,203327E-06,2,43675,-0,9144427,2,43675,0,4068666,2,43675,-0,07251087
0,1879615,-3,591974E-05,2,4435,-0,8298466,2,4435,0,09265278,2,4435,-0,1289082,0,1879615,2,18204E-06,2,4435,-0,8983291,2,4435,0,4068666,2,4435,-0,0886244
0,1884808,-5,119402E-05,2,45025,-0,8298466,2,45025,0,08056764,2,45025,-0,1248798,0,1884808,2,014191E-06,2,45025,-0,8983291,2,45025,0,4068666,2,45025,-0,09265278
0,189,-6,126497E-05,2,457,-0,833875,2,457,0,07251087,2,457,-0,1289082,0,189,3,356985E-06,2,457,-0,8902723,2,457,0,4149233,2,457,-0,1007095
0,1895192,-6,512551E-05,2,46375,-0,8379034,2,46375,0,06445411,2,46375,-0,1248798,0,1895192,5,203327E-06,2,46375,-0,8902723,2,46375,0,4229801,2,46375,-0,09265278
0,1900385,-6,109712E-05,2,4705,-0,8298466,2,4705,0,05639734,2,4705,-0,1248798,0,1900385,6,54612E-06,2,4705,-0,8862439,2,4705,0,4229801,2,4705,-0,09668116
0,1905577,-4,985122E-05,2,47725,-0,8298466,2,47725,0,04834058,2,47725,-0,1127947,0,1905577,6,042573E-06,2,47725,-0,8741588,2,47725,0,4189517,2,47725,-0,08459602
0,1910769,-3,138781E-05,2,484,-0,8298466,2,484,0,03625543,2,484,-0,1168231,0,1910769,4,867628E-06,2,484,-0,866102,2,484,0,4189517,2,484,-0,08056764
0,1915962,-9,903106E-06,2,49075,-0,8217899,2,49075,0,02819867,2,49075,-0,1087663,0,1915962,4,36408E-06,2,49075,-0,866102,2,49075,0,4189517,2,49075,-0,07653925
0,1921154,1,05745E-05,2,4975,-0,8217899,2,4975,0,02014191,2,4975,-0,1087663,0,1921154,4,028382E-06,2,4975,-0,8741588,2,4975,0,4068666,2,4975,-0,08056764
0,1926346,2,702373E-05,2,50425,-0,8258182,2,50425,0,02417029,2,50425,-0,1087663,0,1926346,4,196231E-06,2,50425,-0,8701304,2,50425,0,3988098,2,50425,-0,06848249
0,1931538,3,810178E-05,2,511,-0,833875,2,511,0,02417029,2,511,-0,1127947,0,1931538,3,860533E-06,2,511,-0,8862439,2,511,0,3867247,2,511,-0,05639734
0,1936731,4,666209E-05,2,51775,-0,8419318,2,51775,0,0443122,2,51775,-0,1168231,0,1936731,3,524834E-06,2,51775,-0,8902723,2,51775,0,3867247,2,51775,-0,04028382
0,1941923,5,152972E-05,2,5245,-0,8419318,2,5245,0,06042573,2,5245,-0,1168231,0,1941923,2,517739E-06,2,5245,-0,8943007,2,5245,0,3786679,2,5245,-0,04834058
0,1947115,5,220111E-05,2,53125,-0,8379034,2,53125,0,07653925,2,53125,-0,1168231,0,1947115,1,510643E-06,2,53125,-0,8943007,2,53125,0,3786679,2,53125,-0,05236896
0,1952308,5,119402E-05,2,538,-0,8298466,2,538,0,08459602,2,538,-0,1289082,0,1952308,3,021286E-06,2,538,-0,8943007,2,538,0,3826963,2,538,-0,05236896
0,19575,4,934768E-05,2,54475,-0,8258182,2,54475,0,0886244,2,54475,-0,1329366,0,19575,5,203327E-06,2,54475,-0,8902723,2,54475,0,3867247,2,54475,-0,06848249
0,1962692,4,481575E-05,2,5515,-0,8217899,2,5515,0,0886244,2,5515,-0,1409934,0,1962692,5,706875E-06,2,5515,-0,8902723,2,5515,0,3947814,2,5515,-0,07251087
0,1967885,3,927673E-05,2,55825,-0,8258182,2,55825,0,0886244,2,55825,-0,1409934,0,1967885,6,378271E-06,2,55825,-0,8862439,2,55825,0,4108949,2,55825,-0,06848249
0,1973077,3,709468E-05,2,565,-0,8258182,2,565,0,08056764,2,565,-0,136965,0,1973077,7,385367E-06,2,565,-0,8862439,2,565,0,4189517,2,565,-0,07251087
0,1978269,3,675898E-05,2,57175,-0,8217899,2,57175,0,06848249,2,57175,-0,1329366,0,1978269,5,874724E-06,2,57175,-0,8822156,2,57175,0,4108949,2,57175,-0,08056764
0,1983462,3,743038E-05,2,5785,-0,8298466,2,5785,0,05639734,2,5785,-0,1289082,0,1983462,5,874724E-06,2,5785,-0,8822156,2,5785,0,4189517,2,5785,-0,0886244
0,1988654,4,129091E-05,2,58525,-0,8258182,2,58525,0,04834058,2,58525,-0,1168231,0,1988654,8,224613E-06,2,58525,-0,8741588,2,58525,0,4068666,2,58525,-0,08459602
0,1993846,4,649424E-05,2,592,-0,8217899,2,592,0,0443122,2,592,-0,1127947,0,1993846,1,05745E-05,2,592,-0,8822156,2,592,0,4068666,2,592,-0,08056764
0,1999038,4,682994E-05,2,59875,-0,8217899,2,59875,0,03625543,2,59875,-0,1127947,0,1999038,1,05745E-05,2,59875,-0,8822156,2,59875,0,3988098,2,59875,-0,08056764
0,2004231,4,347295E-05,2,6055,-0,8258182,2,6055,0,0443122,2,6055,-0,1168231,0,2004231,9,231708E-06,2,6055,-0,8741588,2,6055,0,3988098,2,6055,-0,06848249
0,2009423,4,196231E-05,2,61225,-0,8298466,2,61225,0,06042573,2,61225,-0,1168231,0,2009423,1,05745E-05,2,61225,-0,8741588,2,61225,0,3988098,2,61225,-0,06848249
0,2014615,4,280156E-05,2,619,-0,8258182,2,619,0,06445411,2,619,-0,1208515,0,2014615,1,326009E-05,2,619,-0,8741588,2,619,0,3988098,2,619,-0,06445411
0,2019808,4,448005E-05,2,62575,-0,8258182,2,62575,0,07653925,2,62575,-0,1208515,0,2019808,1,460288E-05,2,62575,-0,8741588,2,62575,0,4028382,2,62575,-0,05639734
0,2025,4,213016E-05,2,6325,-0,8258182,2,6325,0,08459602,2,6325,-0,1168231,0,2025,1,594568E-05,2,6325,-0,8822156,2,6325,0,4068666,2,6325,-0,05236896
0,2030192,3,810178E-05,2,63925,-0,8379034,2,63925,0,0886244,2,63925,-0,1168231,0,2030192,1,695277E-05,2,63925,-0,8902723,2,63925,0,4028382,2,63925,-0,04834058
0,2035385,3,508049E-05,2,646,-0,8419318,2,646,0,08056764,2,646,-0,1168231,0,2035385,1,712062E-05,2,646,-0,8983291,2,646,0,4028382,2,646,-0,05639734
0,2040577,3,071641E-05,2,65275,-0,8459601,2,65275,0,07653925,2,65275,-0,1208515,0,2040577,1,594568E-05,2,65275,-0,8983291,2,65275,0,4108949,2,65275,-0,05639734
0,2045769,2,467384E-05,2,6595,-0,8459601,2,6595,0,06042573,2,6595,-0,1208515,0,2045769,1,594568E-05,2,6595,-0,9063858,2,6595,0,4028382,2,6595,-0,05236896
0,2050962,1,997406E-05,2,66625,-0,8459601,2,66625,0,05236896,2,66625,-0,1127947,0,2050962,1,560998E-05,2,66625,-0,9063858,2,66625,0,3988098,2,66625,-0,06042573
0,2056154,1,628138E-05,2,673,-0,8499885,2,673,0,0443122,2,673,-0,1047379,0,2056154,1,594568E-05,2,673,-0,8943007,2,673,0,4068666,2,673,-0,07251087
0,2061346,1,12459E-05,2,67975,-0,8580453,2,67975,0,03222705,2,67975,-0,09265278,0,2061346,1,846342E-05,2,67975,-0,8943007,2,67975,0,4149233,2,67975,-0,06445411
0,2066538,5,539025E-06,2,6865,-0,866102,2,6865,0,02014191,2,6865,-0,09265278,0,2066538,1,863126E-05,2,6865,-0,8862439,2,6865,0,4149233,2,6865,-0,07251087
0,2071731,-1,510643E-06,2,69325,-0,8620737,2,69325,0,01611353,2,69325,-0,1047379,0,2071731,1,628138E-05,2,69325,-0,8902723,2,69325,0,4270085,2,69325,-0,07653925
0,2076923,-7,217517E-06,2,7,-0,866102,2,7,0,01208515,2,7,-0,1087663,0,2076923,1,15816E-05,2,7,-0,9023575,2,7,0,4350652,2,7,-0,08056764
0,2082115,-7,049668E-06,2,70675,-0,866102,2,70675,0,02014191,2,70675,-0,1208515,0,2082115,7,553216E-06,2,70675,-0,8943007,2,70675,0,4270085,2,70675,-0,08056764
0,2087308,-6,042573E-06,2,7135,-0,8540169,2,7135,0,03625543,2,7135,-0,1289082,0,2087308,7,049668E-06,2,7135,-0,8943007,2,7135,0,4310368,2,7135,-0,08056764
0,20925,-5,539025E-06,2,72025,-0,8379034,2,72025,0,0443122,2,72025,-0,1329366,0,20925,7,888914E-06,2,72025,-0,8862439,2,72025,0,4229801,2,72025,-0,09265278
0,2097692,-5,203327E-06,2,727,-0,8258182,2,727,0,05236896,2,727,-0,136965,0,2097692,9,063859E-06,2,727,-0,8822156,2,727,0,4149233,2,727,-0,09668116
0,2102885,-5,203327E-06,2,73375,-0,8056763,2,73375,0,06042573,2,73375,-0,136965,0,2102885,1,05745E-05,2,73375,-0,8741588,2,73375,0,4068666,2,73375,-0,1007095
0,2108077,-3,860533E-06,2,7405,-0,801648,2,7405,0,07653925,2,7405,-0,136965,0,2108077,9,735257E-06,2,7405,-0,866102,2,7405,0,3947814,2,7405,-0,1007095
0,2113269,-1,846342E-06,2,74725,-0,7935912,2,74725,0,0886244,2,74725,-0,136965,0,2113269,6,71397E-06,2,74725,-0,8701304,2,74725,0,3947814,2,74725,-0,08459602
0,2118462,-1,174945E-06,2,754,-0,801648,2,754,0,09668116,2,754,-0,136965,0,2118462,4,196231E-06,2,754,-0,8701304,2,754,0,3867247,2,754,-0,08056764
0,2123654,-2,517739E-06,2,76075,-0,8056763,2,76075,0,1007095,2,76075,-0,1409934,0,2123654,2,853437E-06,2,76075,-0,8781872,2,76075,0,3947814,2,76075,-0,07251087
0,2128846,-3,860533E-06,2,7675,-0,8137331,2,7675,0,09265278,2,7675,-0,1450217,0,2128846,3,189135E-06,2,7675,-0,8781872,2,7675,0,4028382,2,7675,-0,05236896
0,2134039,-4,531929E-06,2,77425,-0,8217899,2,77425,0,09265278,2,77425,-0,1450217,0,2134039,5,706875E-06,2,77425,-0,8822156,2,77425,0,4068666,2,77425,-0,04834058
0,2139231,-4,867628E-06,2,781,-0,8217899,2,781,0,09668116,2,781,-0,1530785,0,2139231,8,728161E-06,2,781,-0,8822156,2,781,0,4068666,2,781,-0,04834058
0,2144423,-4,699778E-06,2,78775,-0,8137331,2,78775,0,09668116,2,78775,-0,1490501,0,2144423,8,560311E-06,2,78775,-0,8822156,2,78775,0,4108949,2,78775,-0,0443122
0,2149615,-4,531929E-06,2,7945,-0,8097047,2,7945,0,09668116,2,7945,-0,1490501,0,2149615,5,539025E-06,2,7945,-0,8781872,2,7945,0,4068666,2,7945,-0,04834058
0,2154808,-5,874724E-06,2,80125,-0,8177615,2,80125,0,09265278,2,80125,-0,1409934,0,2154808,1,510643E-06,2,80125,-0,8741588,2,80125,0,4068666,2,80125,-0,04834058
0,216,-6,210422E-06,2,808,-0,8217899,2,808,0,0886244,2,808,-0,1289082,0,216,1,342794E-06,2,808,-0,8741588,2,808,0,3947814,2,808,-0,04834058
0,2165192,-5,706875E-06,2,81475,-0,8258182,2,81475,0,08459602,2,81475,-0,1208515,0,2165192,4,531929E-06,2,81475,-0,8822156,2,81475,0,3947814,2,81475,-0,04834058
0,2170385,-6,71397E-06,2,8215,-0,8258182,2,8215,0,07251087,2,8215,-0,1087663,0,2170385,5,203327E-06,2,8215,-0,8862439,2,8215,0,390753,2,8215,-0,0443122
0,2175577,-7,888914E-06,2,82825,-0,833875,2,82825,0,06445411,2,82825,-0,09668116,0,2175577,6,378271E-06,2,82825,-0,8983291,2,82825,0,390753,2,82825,-0,04028382
0,2180769,-6,378271E-06,2,835,-0,8379034,2,835,0,05236896,2,835,-0,1047379,0,2180769,8,728161E-06,2,835,-0,8983291,2,835,0,390753,2,835,-0,04028382
0,2185962,-4,36408E-06,2,84175,-0,8419318,2,84175,0,05236896,2,84175,-0,1168231,0,2185962,9,231708E-06,2,84175,-0,8902723,2,84175,0,3947814,2,84175,-0,03625543
0,2191154,-4,699778E-06,2,8485,-0,8379034,2,8485,0,06042573,2,8485,-0,1289082,0,2191154,7,888914E-06,2,8485,-0,8862439,2,8485,0,3947814,2,8485,-0,04834058
0,2196346,-4,196231E-06,2,85525,-0,8258182,2,85525,0,06042573,2,85525,-0,1289082,0,2196346,7,217517E-06,2,85525,-0,8781872,2,85525,0,3947814,2,85525,-0,05236896
0,2201539,-2,853437E-06,2,862,-0,8217899,2,862,0,06445411,2,862,-0,1329366,0,2201539,7,721065E-06,2,862,-0,8741588,2,862,0,3947814,2,862,-0,06848249
0,2206731,-2,18204E-06,2,86875,-0,8097047,2,86875,0,06445411,2,86875,-0,1289082,0,2206731,9,231708E-06,2,86875,-0,866102,2,86875,0,3867247,2,86875,-0,06042573
0,2211923,-5,035478E-07,2,8755,-0,7976196,2,8755,0,05639734,2,8755,-0,1329366,0,2211923,1,05745E-05,2,8755,-0,8540169,2,8755,0,3826963,2,8755,-0,06848249
0,2217115,1,678492E-06,2,88225,-0,7976196,2,88225,0,06042573,2,88225,-0,1289082,0,2217115,1,15816E-05,2,88225,-0,8540169,2,88225,0,3867247,2,88225,-0,08056764
0,2222308,3,189135E-06,2,889,-0,7976196,2,889,0,06042573,2,889,-0,1329366,0,2222308,1,05745E-05,2,889,-0,8499885,2,889,0,3786679,2,889,-0,07653925
0,22275,5,203327E-06,2,89575,-0,801648,2,89575,0,06445411,2,89575,-0,1168231,0,22275,1,02388E-05,2,89575,-0,8580453,2,89575,0,3826963,2,89575,-0,07653925
0,2232692,3,189135E-06,2,9025,-0,8056763,2,9025,0,06042573,2,9025,-0,1248798,0,2232692,9,735257E-06,2,9025,-0,8620737,2,9025,0,3826963,2,9025,-0,07653925
0,2237885,-1,174945E-06,2,90925,-0,8097047,2,90925,0,07251087,2,90925,-0,1289082,0,2237885,9,231708E-06,2,90925,-0,866102,2,90925,0,3867247,2,90925,-0,06848249
0,2243077,-3,356985E-07,2,916,-0,8217899,2,916,0,07251087,2,916,-0,1409934,0,2243077,6,210422E-06,2,916,-0,8741588,2,916,0,4028382,2,916,-0,06042573
0,2248269,4,867628E-06,2,92275,-0,8217899,2,92275,0,08459602,2,92275,-0,1450217,0,2248269,3,356985E-06,2,92275,-0,8822156,2,92275,0,4068666,2,92275,-0,04834058
0,2253462,1,258869E-05,2,9295,-0,8298466,2,9295,0,0886244,2,9295,-0,1490501,0,2253462,4,531929E-06,2,9295,-0,8943007,2,9295,0,4189517,2,9295,-0,05639734
0,2258654,2,064546E-05,2,93625,-0,833875,2,93625,0,09668116,2,93625,-0,1409934,0,2258654,3,860533E-06,2,93625,-0,8983291,2,93625,0,4270085,2,93625,-0,05639734
0,2263846,2,299535E-05,2,943,-0,8379034,2,943,0,09668116,2,943,-0,1329366,0,2263846,2,18204E-06,2,943,-0,8943007,2,943,0,4350652,2,943,-0,05639734
0,2269039,2,131685E-05,2,94975,-0,8379034,2,94975,0,09668116,2,94975,-0,1248798,0,2269039,5,539025E-06,2,94975,-0,8862439,2,94975,0,4390936,2,94975,-0,05639734
0,2274231,2,21561E-05,2,9565,-0,8379034,2,9565,0,08459602,2,9565,-0,1208515,0,2274231,8,89601E-06,2,9565,-0,8822156,2,9565,0,4270085,2,9565,-0,06848249
0,2279423,2,433814E-05,2,96325,-0,8379034,2,96325,0,06848249,2,96325,-0,1248798,0,2279423,6,881819E-06,2,96325,-0,8902723,2,96325,0,4310368,2,96325,-0,06445411
0,2284615,2,467384E-05,2,97,-0,8419318,2,97,0,06445411,2,97,-0,1289082,0,2284615,6,042573E-06,2,97,-0,8862439,2,97,0,4108949,2,97,-0,07251087
0,2289808,2,131685E-05,2,97675,-0,8379034,2,97675,0,05639734,2,97675,-0,1248798,0,2289808,8,560311E-06,2,97675,-0,8822156,2,97675,0,4028382,2,97675,-0,06445411
0,2295,1,393149E-05,2,9835,-0,8258182,2,9835,0,05236896,2,9835,-0,1289082,0,2295,1,040665E-05,2,9835,-0,8741588,2,9835,0,3988098,2,9835,-0,06445411
0,2300192,4,196231E-06,2,99025,-0,8217899,2,99025,0,05639734,2,99025,-0,1329366,0,2300192,9,735257E-06,2,99025,-0,8741588,2,99025,0,3867247,2,99025,-0,06848249
0,2305385,-1,846342E-06,2,997,-0,8258182,2,997,0,06445411,2,997,-0,1450217,0,2305385,1,040665E-05,2,997,-0,8862439,2,997,0,3746395,2,997,-0,05639734
0,2310577,-1,510643E-06,3,00375,-0,8298466,3,00375,0,06848249,3,00375,-0,1409934,0,2310577,1,326009E-05,3,00375,-0,8943007,3,00375,0,3706111,3,00375,-0,06042573
0,2315769,3,356985E-07,3,0105,-0,8298466,3,0105,0,08056764,3,0105,-0,1490501,0,2315769,1,359579E-05,3,0105,-0,8902723,3,0105,0,3746395,3,0105,-0,05639734
0,2320962,-8,392462E-07,3,01725,-0,833875,3,01725,0,09265278,3,01725,-0,1409934,0,2320962,1,309224E-05,3,01725,-0,9023575,3,01725,0,3706111,3,01725,-0,05236896
0,2326154,-4,531929E-06,3,024,-0,8298466,3,024,0,09265278,3,024,-0,1450217,0,2326154,1,326009E-05,3,024,-0,9023575,3,024,0,358526,3,024,-0,06042573
0,2331346,-7,888914E-06,3,03075,-0,833875,3,03075,0,09668116,3,03075,-0,1530785,0,2331346,1,275654E-05,3,03075,-0,9104142,3,03075,0,3625543,3,03075,-0,05639734
0,2336538,-8,224613E-06,3,0375,-0,8298466,3,0375,0,09265278,3,0375,-0,1490501,0,2336538,1,292439E-05,3,0375,-0,9104142,3,0375,0,3625543,3,0375,-0,06445411
0,2341731,-5,539025E-06,3,04425,-0,8298466,3,04425,0,08459602,3,04425,-0,1450217,0,2341731,1,326009E-05,3,04425,-0,9023575,3,04425,0,3625543,3,04425,-0,06042573
0,2346923,-2,18204E-06,3,051,-0,8298466,3,051,0,08056764,3,051,-0,1409934,0,2346923,1,09102E-05,3,051,-0,8983291,3,051,0,358526,3,051,-0,06042573
0,2352115,1,510643E-06,3,05775,-0,8379034,3,05775,0,07653925,3,05775,-0,136965,0,2352115,9,735257E-06,3,05775,-0,8902723,3,05775,0,3706111,3,05775,-0,05236896
0,2357308,6,881819E-06,3,0645,-0,8419318,3,0645,0,06848249,3,0645,-0,1289082,0,2357308,1,225299E-05,3,0645,-0,8902723,3,0645,0,3786679,3,0645,-0,05236896
0,23625,9,735257E-06,3,07125,-0,8499885,3,07125,0,06042573,3,07125,-0,1168231,0,23625,1,359579E-05,3,07125,-0,8902723,3,07125,0,390753,3,07125,-0,06042573
0,2367692,3,524834E-06,3,078,-0,8620737,3,078,0,05639734,3,078,-0,1168231,0,2367692,1,141375E-05,3,078,-0,8943007,3,078,0,3988098,3,078,-0,05639734
0,2372885,-9,735257E-06,3,08475,-0,8620737,3,08475,0,05236896,3,08475,-0,1208515,0,2372885,8,89601E-06,3,08475,-0,9023575,3,08475,0,4108949,3,08475,-0,06445411
0,2378077,-2,165255E-05,3,0915,-0,8580453,3,0915,0,05236896,3,0915,-0,1248798,0,2378077,6,54612E-06,3,0915,-0,9023575,3,0915,0,4270085,3,0915,-0,06848249
0,2383269,-2,719158E-05,3,09825,-0,8459601,3,09825,0,05236896,3,09825,-0,1248798,0,2383269,3,189135E-06,3,09825,-0,8943007,3,09825,0,4390936,3,09825,-0,07251087
0,2388462,-2,870222E-05,3,105,-0,8298466,3,105,0,05236896,3,105,-0,1168231,0,2388462,2,349889E-06,3,105,-0,8781872,3,105,0,4390936,3,105,-0,08056764
0,2393654,-2,484169E-05,3,11175,-0,8217899,3,11175,0,05639734,3,11175,-0,1087663,0,2393654,4,531929E-06,3,11175,-0,8741588,3,11175,0,4390936,3,11175,-0,07251087
0,2398846,-1,493858E-05,3,1185,-0,8177615,3,1185,0,04834058,3,1185,-0,1047379,0,2398846,5,874724E-06,3,1185,-0,8701304,3,1185,0,4270085,3,1185,-0,09265278
0,2404038,-2,853437E-06,3,12525,-0,8258182,3,12525,0,05639734,3,12525,-0,1127947,0,2404038,5,203327E-06,3,12525,-0,8701304,3,12525,0,4229801,3,12525,-0,08459602
0,2409231,9,903106E-06,3,132,-0,8298466,3,132,0,05639734,3,132,-0,1289082,0,2409231,6,210422E-06,3,132,-0,8741588,3,132,0,4149233,3,132,-0,09265278
0,2414423,2,551308E-05,3,13875,-0,8379034,3,13875,0,06445411,3,13875,-0,136965,0,2414423,6,378271E-06,3,13875,-0,8822156,3,13875,0,4028382,3,13875,-0,08459602
0,2419615,3,994812E-05,3,1455,-0,8379034,3,1455,0,06445411,3,1455,-0,1490501,0,2419615,7,553216E-06,3,1455,-0,8862439,3,1455,0,3988098,3,1455,-0,07653925
0,2424808,5,152972E-05,3,15225,-0,8379034,3,15225,0,07653925,3,15225,-0,1571069,0,2424808,7,721065E-06,3,15225,-0,8902723,3,15225,0,3947814,3,15225,-0,08056764
0,243,6,092927E-05,3,159,-0,8298466,3,159,0,0886244,3,159,-0,169192,0,243,6,210422E-06,3,159,-0,8862439,3,159,0,3988098,3,159,-0,07251087
0,2435192,6,630045E-05,3,16575,-0,8258182,3,16575,0,09668116,3,16575,-0,1812772,0,2435192,4,699778E-06,3,16575,-0,8862439,3,16575,0,390753,3,16575,-0,06848249
0,2440385,6,831464E-05,3,1725,-0,8177615,3,1725,0,1047379,3,1725,-0,1812772,0,2440385,1,846342E-06,3,1725,-0,8822156,3,1725,0,3826963,3,1725,-0,07251087
0,2445577,6,395057E-05,3,17925,-0,8217899,3,17925,0,1127947,3,17925,-0,1772488,0,2445577,2,349889E-06,3,17925,-0,8822156,3,17925,0,3665827,3,17925,-0,07251087
0,2450769,5,690089E-05,3,186,-0,8217899,3,186,0,1087663,3,186,-0,169192,0,2450769,5,203327E-06,3,186,-0,8862439,3,186,0,358526,3,186,-0,07251087
0,2455962,5,421531E-05,3,19275,-0,8177615,3,19275,0,1087663,3,19275,-0,1732204,0,2455962,5,539025E-06,3,19275,-0,8902723,3,19275,0,3504692,3,19275,-0,07653925
0,2461154,5,186542E-05,3,1995,-0,8177615,3,1995,0,1007095,3,1995,-0,1611353,0,2461154,5,203327E-06,3,1995,-0,8862439,3,1995,0,3383841,3,1995,-0,08056764
0,2466346,3,961242E-05,3,20625,-0,8177615,3,20625,0,09265278,3,20625,-0,1611353,0,2466346,5,539025E-06,3,20625,-0,8943007,3,20625,0,3424124,3,20625,-0,07251087
0,2471538,2,064546E-05,3,213,-0,8177615,3,213,0,0886244,3,213,-0,1611353,0,2471538,4,196231E-06,3,213,-0,8983291,3,213,0,3504692,3,213,-0,07653925
0,2476731,4,36408E-06,3,21975,-0,8217899,3,21975,0,07653925,3,21975,-0,1611353,0,2476731,4,867628E-06,3,21975,-0,8983291,3,21975,0,3464408,3,21975,-0,08459602
0,2481923,-5,035477E-06,3,2265,-0,8258182,3,2265,0,07251087,3,2265,-0,1571069,0,2481923,6,54612E-06,3,2265,-0,9023575,3,2265,0,358526,3,2265,-0,08459602
0,2487115,-8,224613E-06,3,23325,-0,8298466,3,23325,0,06445411,3,23325,-0,1571069,0,2487115,7,385367E-06,3,23325,-0,8943007,3,23325,0,3665827,3,23325,-0,08056764
0,2492308,-7,049668E-06,3,24,-0,833875,3,24,0,06042573,3,24,-0,1530785,0,2492308,9,231708E-06,3,24,-0,8983291,3,24,0,3826963,3,24,-0,08056764
0,24975,-4,36408E-06,3,24675,-0,8419318,3,24675,0,06042573,3,24675,-0,1450217,0,24975,1,05745E-05,3,24675,-0,8983291,3,24675,0,390753,3,24675,-0,07653925
0,2502692,-3,189135E-06,3,2535,-0,8379034,3,2535,0,06042573,3,2535,-0,1530785,0,2502692,1,174945E-05,3,2535,-0,8983291,3,2535,0,4028382,3,2535,-0,07653925
0,2507885,-3,524834E-06,3,26025,-0,8379034,3,26025,0,06445411,3,26025,-0,1450217,0,2507885,1,258869E-05,3,26025,-0,8983291,3,26025,0,4028382,3,26025,-0,07251087
0,2513077,1,678492E-07,3,267,-0,8459601,3,267,0,06848249,3,267,-0,1409934,0,2513077,1,05745E-05,3,267,-0,8943007,3,267,0,4028382,3,267,-0,06848249
0,2518269,7,888914E-06,3,27375,-0,8459601,3,27375,0,06848249,3,27375,-0,136965,0,2518269,7,553216E-06,3,27375,-0,8943007,3,27375,0,4068666,3,27375,-0,06848249
0,2523462,1,544213E-05,3,2805,-0,8499885,3,2805,0,07251087,3,2805,-0,1409934,0,2523462,7,888914E-06,3,2805,-0,8862439,3,2805,0,390753,3,2805,-0,06445411
0,2528654,1,896696E-05,3,28725,-0,8499885,3,28725,0,07653925,3,28725,-0,1409934,0,2528654,9,567407E-06,3,28725,-0,8862439,3,28725,0,390753,3,28725,-0,06042573
0,2533846,1,695277E-05,3,294,-0,8459601,3,294,0,08056764,3,294,-0,1450217,0,2533846,1,09102E-05,3,294,-0,8943007,3,294,0,3826963,3,294,-0,06445411
0,2539038,1,007095E-05,3,30075,-0,8459601,3,30075,0,08056764,3,30075,-0,1409934,0,2539038,1,05745E-05,3,30075,-0,8983291,3,30075,0,3826963,3,30075,-0,06042573
0,2544231,3,021286E-06,3,3075,-0,8379034,3,3075,0,0886244,3,3075,-0,1530785,0,2544231,9,063859E-06,3,3075,-0,9023575,3,3075,0,3786679,3,3075,-0,06445411
0,2549423,1,174945E-06,3,31425,-0,8379034,3,31425,0,08459602,3,31425,-0,1530785,0,2549423,1,05745E-05,3,31425,-0,9063858,3,31425,0,3786679,3,31425,-0,07251087
0,2554615,4,867628E-06,3,321,-0,8419318,3,321,0,08056764,3,321,-0,1571069,0,2554615,1,326009E-05,3,321,-0,9063858,3,321,0,3786679,3,321,-0,07653925
0,2559808,1,19173E-05,3,32775,-0,833875,3,32775,0,07251087,3,32775,-0,1571069,0,2559808,1,326009E-05,3,32775,-0,8983291,3,32775,0,3786679,3,32775,-0,08459602
0,2565,1,930266E-05,3,3345,-0,8379034,3,3345,0,07653925,3,3345,-0,1611353,0,2565,1,326009E-05,3,3345,-0,8943007,3,3345,0,3826963,3,3345,-0,0886244
0,2570192,2,131685E-05,3,34125,-0,833875,3,34125,0,07653925,3,34125,-0,1611353,0,2570192,1,493858E-05,3,34125,-0,8983291,3,34125,0,3867247,3,34125,-0,09265278
0,2575385,1,963836E-05,3,348,-0,8298466,3,348,0,07653925,3,348,-0,1530785,0,2575385,1,661708E-05,3,348,-0,8943007,3,348,0,3826963,3,348,-0,09265278
0,2580577,1,594568E-05,3,35475,-0,8298466,3,35475,0,07653925,3,35475,-0,1490501,0,2580577,1,560998E-05,3,35475,-0,8862439,3,35475,0,390753,3,35475,-0,09265278
0,2585769,1,326009E-05,3,3615,-0,8298466,3,3615,0,08056764,3,3615,-0,1490501,0,2585769,1,326009E-05,3,3615,-0,8862439,3,3615,0,3826963,3,3615,-0,0886244
0,2590961,1,695277E-05,3,36825,-0,8217899,3,36825,0,08056764,3,36825,-0,1450217,0,2590961,1,15816E-05,3,36825,-0,8741588,3,36825,0,3947814,3,36825,-0,08056764
0,2596154,2,467384E-05,3,375,-0,8217899,3,375,0,07251087,3,375,-0,1450217,0,2596154,1,040665E-05,3,375,-0,8620737,3,375,0,3947814,3,375,-0,08056764
0,2601346,2,786297E-05,3,38175,-0,8217899,3,38175,0,06848249,3,38175,-0,1450217,0,2601346,7,888914E-06,3,38175,-0,8620737,3,38175,0,3947814,3,38175,-0,08056764
0,2606539,2,500954E-05,3,3885,-0,8258182,3,3885,0,06848249,3,3885,-0,1409934,0,2606539,6,042573E-06,3,3885,-0,8701304,3,3885,0,390753,3,3885,-0,08056764
0,2611731,2,131685E-05,3,39525,-0,8258182,3,39525,0,05639734,3,39525,-0,1409934,0,2611731,6,881819E-06,3,39525,-0,8781872,3,39525,0,3867247,3,39525,-0,06445411
0,2616923,2,064546E-05,3,402,-0,8298466,3,402,0,05639734,3,402,-0,1450217,0,2616923,7,217517E-06,3,402,-0,8862439,3,402,0,3826963,3,402,-0,07653925
0,2622115,2,265965E-05,3,40875,-0,833875,3,40875,0,06042573,3,40875,-0,1450217,0,2622115,4,867628E-06,3,40875,-0,8902723,3,40875,0,3706111,3,40875,-0,07653925
0,2627308,2,198825E-05,3,4155,-0,8298466,3,4155,0,07251087,3,4155,-0,1530785,0,2627308,4,028382E-06,3,4155,-0,8943007,3,4155,0,3706111,3,4155,-0,07653925
0,26325,1,863126E-05,3,42225,-0,8298466,3,42225,0,08056764,3,42225,-0,1611353,0,26325,6,378271E-06,3,42225,-0,8943007,3,42225,0,3746395,3,42225,-0,07251087
0,2637692,1,560998E-05,3,429,-0,8258182,3,429,0,09668116,3,429,-0,169192,0,2637692,9,063859E-06,3,429,-0,9023575,3,429,0,3706111,3,429,-0,07653925
0,2642885,9,903106E-06,3,43575,-0,8258182,3,43575,0,1047379,3,43575,-0,1651637,0,2642885,1,292439E-05,3,43575,-0,8983291,3,43575,0,3746395,3,43575,-0,06848249
0,2648077,5,203327E-06,3,4425,-0,8217899,3,4425,0,1127947,3,4425,-0,169192,0,2648077,1,443503E-05,3,4425,-0,9023575,3,4425,0,3746395,3,4425,-0,06848249
0,2653269,6,210422E-06,3,44925,-0,8298466,3,44925,0,1087663,3,44925,-0,1651637,0,2653269,1,208515E-05,3,44925,-0,8943007,3,44925,0,3746395,3,44925,-0,06848249
0,2658462,8,89601E-06,3,456,-0,833875,3,456,0,1007095,3,456,-0,1651637,0,2658462,9,567407E-06,3,456,-0,8943007,3,456,0,3625543,3,456,-0,06848249
0,2663654,9,735257E-06,3,46275,-0,8419318,3,46275,0,09265278,3,46275,-0,1611353,0,2663654,8,392462E-06,3,46275,-0,8943007,3,46275,0,3625543,3,46275,-0,06445411
0,2668846,1,02388E-05,3,4695,-0,8459601,3,4695,0,07653925,3,4695,-0,1611353,0,2668846,1,040665E-05,3,4695,-0,9023575,3,4695,0,358526,3,4695,-0,06848249
0,2674038,1,510643E-05,3,47625,-0,8620737,3,47625,0,07653925,3,47625,-0,1571069,0,2674038,1,258869E-05,3,47625,-0,9144427,3,47625,0,358526,3,47625,-0,06042573
0,2679231,2,030976E-05,3,483,-0,866102,3,483,0,08056764,3,483,-0,1611353,0,2679231,1,225299E-05,3,483,-0,9224994,3,483,0,3544976,3,483,-0,06445411
0,2684423,2,1149E-05,3,48975,-0,866102,3,48975,0,08459602,3,48975,-0,1530785,0,2684423,1,208515E-05,3,48975,-0,9305562,3,48975,0,3665827,3,48975,-0,06445411
0,2689615,1,728847E-05,3,4965,-0,8580453,3,4965,0,0886244,3,4965,-0,1530785,0,2689615,1,258869E-05,3,4965,-0,9305562,3,4965,0,3706111,3,4965,-0,08056764
0,2694808,1,376364E-05,3,50325,-0,8499885,3,50325,0,0886244,3,50325,-0,1530785,0,2694808,1,05745E-05,3,50325,-0,9265279,3,50325,0,3826963,3,50325,-0,0886244
0,27,1,544213E-05,3,51,-0,8419318,3,51,0,08056764,3,51,-0,1490501,0,27,7,217517E-06,3,51,-0,9144427,3,51,0,3947814,3,51,-0,09668116
0,2705192,1,896696E-05,3,51675,-0,833875,3,51675,0,07251087,3,51675,-0,1409934,0,2705192,6,378271E-06,3,51675,-0,8983291,3,51675,0,4028382,3,51675,-0,09668116
0,2710385,2,131685E-05,3,5235,-0,8217899,3,5235,0,06445411,3,5235,-0,1329366,0,2710385,6,54612E-06,3,5235,-0,8862439,3,5235,0,4068666,3,5235,-0,09668116
0,2715577,1,947051E-05,3,53025,-0,8177615,3,53025,0,06042573,3,53025,-0,1289082,0,2715577,7,049668E-06,3,53025,-0,8781872,3,53025,0,4149233,3,53025,-0,0886244
0,2720769,1,443503E-05,3,537,-0,8258182,3,537,0,05639734,3,537,-0,1289082,0,2720769,5,874724E-06,3,537,-0,8701304,3,537,0,4068666,3,537,-0,08056764
0,2725962,1,09102E-05,3,54375,-0,8258182,3,54375,0,06042573,3,54375,-0,1289082,0,2725962,4,196231E-06,3,54375,-0,866102,3,54375,0,4068666,3,54375,-0,07251087
0,2731154,7,049668E-06,3,5505,-0,833875,3,5505,0,06042573,3,5505,-0,1450217,0,2731154,3,860533E-06,3,5505,-0,8701304,3,5505,0,3947814,3,5505,-0,06848249
0,2736346,3,189135E-06,3,55725,-0,8379034,3,55725,0,06042573,3,55725,-0,1611353,0,2736346,5,035477E-06,3,55725,-0,8822156,3,55725,0,390753,3,55725,-0,06042573
0,2741539,1,174945E-06,3,564,-0,8298466,3,564,0,06848249,3,564,-0,1772488,0,2741539,4,867628E-06,3,564,-0,8902723,3,564,0,390753,3,564,-0,06848249
0,2746731,1,510643E-06,3,57075,-0,8217899,3,57075,0,06848249,3,57075,-0,1853056,0,2746731,3,021286E-06,3,57075,-0,8862439,3,57075,0,390753,3,57075,-0,06445411
0,2751923,5,035477E-06,3,5775,-0,8217899,3,5775,0,07653925,3,5775,-0,1853056,0,2751923,2,853437E-06,3,5775,-0,8862439,3,5775,0,3746395,3,5775,-0,08056764
0,2757115,9,231708E-06,3,58425,-0,8217899,3,58425,0,0886244,3,58425,-0,1772488,0,2757115,2,18204E-06,3,58425,-0,8862439,3,58425,0,3706111,3,58425,-0,08459602
0,2762308,1,19173E-05,3,591,-0,8298466,3,591,0,0886244,3,591,-0,169192,0,2762308,1,342794E-06,3,591,-0,8902723,3,591,0,3544976,3,591,-0,09265278
0,27675,1,174945E-05,3,59775,-0,8258182,3,59775,0,09265278,3,59775,-0,1571069,0,27675,1,846342E-06,3,59775,-0,8902723,3,59775,0,3504692,3,59775,-0,1007095
0,2772692,1,12459E-05,3,6045,-0,8258182,3,6045,0,0886244,3,6045,-0,1490501,0,2772692,3,021286E-06,3,6045,-0,8943007,3,6045,0,3504692,3,6045,-0,1007095
0,2777885,9,903106E-06,3,61125,-0,8217899,3,61125,0,08459602,3,61125,-0,1530785,0,2777885,7,553216E-06,3,61125,-0,8983291,3,61125,0,3544976,3,61125,-0,1047379
0,2783077,8,560311E-06,3,618,-0,8217899,3,618,0,07251087,3,618,-0,1611353,0,2783077,1,02388E-05,3,618,-0,9023575,3,618,0,3544976,3,618,-0,1007095
0,2788269,9,063859E-06,3,62475,-0,8217899,3,62475,0,06848249,3,62475,-0,1611353,0,2788269,7,888914E-06,3,62475,-0,9063858,3,62475,0,3625543,3,62475,-0,09668116
0,2793462,9,567407E-06,3,6315,-0,8258182,3,6315,0,06848249,3,6315,-0,169192,0,2793462,6,042573E-06,3,6315,-0,9063858,3,6315,0,3665827,3,6315,-0,08459602
0,2798654,1,19173E-05,3,63825,-0,8298466,3,63825,0,07251087,3,63825,-0,1732204,0,2798654,4,36408E-06,3,63825,-0,8983291,3,63825,0,3706111,3,63825,-0,08056764
0,2803846,1,712062E-05,3,645,-0,8298466,3,645,0,06848249,3,645,-0,1772488,0,2803846,4,196231E-06,3,645,-0,8983291,3,645,0,3746395,3,645,-0,07251087
0,2809038,2,131685E-05,3,65175,-0,8258182,3,65175,0,06848249,3,65175,-0,1732204,0,2809038,6,210422E-06,3,65175,-0,8943007,3,65175,0,3826963,3,65175,-0,06848249
0,2814231,2,265965E-05,3,6585,-0,8258182,3,6585,0,06848249,3,6585,-0,1732204,0,2814231,9,063859E-06,3,6585,-0,8902723,3,6585,0,3746395,3,6585,-0,06445411
0,2819423,2,668803E-05,3,66525,-0,8258182,3,66525,0,07251087,3,66525,-0,1651637,0,2819423,9,567407E-06,3,66525,-0,8943007,3,66525,0,3746395,3,66525,-0,06445411
0,2824616,3,27306E-05,3,672,-0,8298466,3,672,0,06848249,3,672,-0,1490501,0,2824616,7,217517E-06,3,672,-0,8983291,3,672,0,3746395,3,672,-0,07251087
0,2829808,3,709468E-05,3,67875,-0,8379034,3,67875,0,06848249,3,67875,-0,1409934,0,2829808,5,874724E-06,3,67875,-0,8943007,3,67875,0,3746395,3,67875,-0,07251087
0,2835,3,642328E-05,3,6855,-0,8419318,3,6855,0,06848249,3,6855,-0,136965,0,2835,7,049668E-06,3,6855,-0,8943007,3,6855,0,3746395,3,6855,-0,06445411
0,2840192,3,138781E-05,3,69225,-0,8419318,3,69225,0,06848249,3,69225,-0,136965,0,2840192,7,888914E-06,3,69225,-0,8862439,3,69225,0,390753,3,69225,-0,06042573
0,2845385,2,853437E-05,3,699,-0,8419318,3,699,0,07251087,3,699,-0,1409934,0,2845385,7,217517E-06,3,699,-0,8902723,3,699,0,390753,3,699,-0,06848249
0,2850577,2,635233E-05,3,70575,-0,8419318,3,70575,0,07251087,3,70575,-0,1490501,0,2850577,8,560311E-06,3,70575,-0,8902723,3,70575,0,3947814,3,70575,-0,07653925
0,2855769,2,232395E-05,3,7125,-0,8419318,3,7125,0,06445411,3,7125,-0,1571069,0,2855769,9,231708E-06,3,7125,-0,8902723,3,7125,0,3947814,3,7125,-0,08459602
0,2860962,1,728847E-05,3,71925,-0,8459601,3,71925,0,07251087,3,71925,-0,169192,0,2860962,7,385367E-06,3,71925,-0,8902723,3,71925,0,4028382,3,71925,-0,0886244
0,2866154,1,05745E-05,3,726,-0,8540169,3,726,0,06445411,3,726,-0,1772488,0,2866154,2,517739E-06,3,726,-0,8902723,3,726,0,3947814,3,726,-0,09668116
0,2871346,2,517739E-06,3,73275,-0,8620737,3,73275,0,06848249,3,73275,-0,169192,0,2871346,1,678492E-07,3,73275,-0,8983291,3,73275,0,3988098,3,73275,-0,09265278
0,2876539,-5,539025E-06,3,7395,-0,8781872,3,7395,0,06848249,3,7395,-0,1732204,0,2876539,8,392462E-07,3,7395,-0,9063858,3,7395,0,3947814,3,7395,-0,1007095
0,2881731,-1,258869E-05,3,74625,-0,8822156,3,74625,0,07251087,3,74625,-0,1732204,0,2881731,1,174945E-06,3,74625,-0,9104142,3,74625,0,3988098,3,74625,-0,1047379
0,2886923,-1,712062E-05,3,753,-0,8822156,3,753,0,06848249,3,753,-0,169192,0,2886923,4,531929E-06,3,753,-0,9224994,3,753,0,3988098,3,753,-0,1087663
0,2892115,-1,628138E-05,3,75975,-0,8741588,3,75975,0,08056764,3,75975,-0,169192,0,2892115,7,553216E-06,3,75975,-0,9104142,3,75975,0,3947814,3,75975,-0,1087663
0,2897308,-1,292439E-05,3,7665,-0,8620737,3,7665,0,0886244,3,7665,-0,169192,0,2897308,8,560311E-06,3,7665,-0,9144427,3,7665,0,3867247,3,7665,-0,1127947
0,29025,-1,02388E-05,3,77325,-0,8499885,3,77325,0,09265278,3,77325,-0,1732204,0,29025,9,567407E-06,3,77325,-0,9104142,3,77325,0,3867247,3,77325,-0,1168231
0,2907692,-1,09102E-05,3,78,-0,8379034,3,78,0,09265278,3,78,-0,1812772,0,2907692,1,174945E-05,3,78,-0,9063858,3,78,0,3826963,3,78,-0,1168231
0,2912885,-1,309224E-05,3,78675,-0,8298466,3,78675,0,09668116,3,78675,-0,1853056,0,2912885,1,477073E-05,3,78675,-0,9104142,3,78675,0,3786679,3,78675,-0,1168231
0,2918077,-1,426719E-05,3,7935,-0,8379034,3,7935,0,09668116,3,7935,-0,1853056,0,2918077,1,628138E-05,3,7935,-0,9023575,3,7935,0,3786679,3,7935,-0,1168231
0,2923269,-1,493858E-05,3,80025,-0,8379034,3,80025,0,09265278,3,80025,-0,1893339,0,2923269,1,644923E-05,3,80025,-0,9104142,3,80025,0,3625543,3,80025,-0,1127947
0,2928461,-1,863126E-05,3,807,-0,8459601,3,807,0,0886244,3,807,-0,1853056,0,2928461,1,510643E-05,3,807,-0,9144427,3,807,0,3544976,3,807,-0,1047379
0,2933654,-2,366674E-05,3,81375,-0,8459601,3,81375,0,0886244,3,81375,-0,1772488,0,2933654,1,258869E-05,3,81375,-0,9224994,3,81375,0,3544976,3,81375,-0,1007095
0,2938846,-2,601663E-05,3,8205,-0,8419318,3,8205,0,08459602,3,8205,-0,1812772,0,2938846,1,426719E-05,3,8205,-0,9184711,3,8205,0,3544976,3,8205,-0,09265278
0,2944039,-2,702373E-05,3,82725,-0,833875,3,82725,0,08459602,3,82725,-0,1812772,0,2944039,1,795987E-05,3,82725,-0,9184711,3,82725,0,3504692,3,82725,-0,08459602
0,2949231,-2,601663E-05,3,834,-0,8258182,3,834,0,08056764,3,834,-0,1732204,0,2949231,1,493858E-05,3,834,-0,9063858,3,834,0,3544976,3,834,-0,07251087
0,2954423,-2,047761E-05,3,84075,-0,8217899,3,84075,0,07653925,3,84075,-0,1732204,0,2954423,1,05745E-05,3,84075,-0,9023575,3,84075,0,3504692,3,84075,-0,06848249
0,2959615,-1,19173E-05,3,8475,-0,8258182,3,8475,0,07251087,3,8475,-0,1772488,0,2959615,1,19173E-05,3,8475,-0,8902723,3,8475,0,3504692,3,8475,-0,07251087
0,2964808,-4,867628E-06,3,85425,-0,8298466,3,85425,0,06042573,3,85425,-0,1611353,0,2964808,1,376364E-05,3,85425,-0,8902723,3,85425,0,358526,3,85425,-0,07653925
0,297,2,517739E-06,3,861,-0,8298466,3,861,0,04834058,3,861,-0,1651637,0,297,1,342794E-05,3,861,-0,8943007,3,861,0,3625543,3,861,-0,08056764
0,2975192,7,721065E-06,3,86775,-0,8298466,3,86775,0,0443122,3,86775,-0,1651637,0,2975192,1,309224E-05,3,86775,-0,8822156,3,86775,0,3665827,3,86775,-0,07653925
0,2980385,1,15816E-05,3,8745,-0,8177615,3,8745,0,0443122,3,8745,-0,169192,0,2980385,9,231708E-06,3,8745,-0,8862439,3,8745,0,3706111,3,8745,-0,0886244
0,2985577,1,560998E-05,3,88125,-0,8137331,3,88125,0,04028382,3,88125,-0,1611353,0,2985577,5,874724E-06,3,88125,-0,8822156,3,88125,0,3746395,3,88125,-0,09265278
0,2990769,1,930266E-05,3,888,-0,8056763,3,888,0,04028382,3,888,-0,1611353,0,2990769,7,888914E-06,3,888,-0,8822156,3,888,0,3786679,3,888,-0,1007095
0,2995962,2,098116E-05,3,89475,-0,8097047,3,89475,0,0443122,3,89475,-0,1571069,0,2995962,9,567407E-06,3,89475,-0,8781872,3,89475,0,3826963,3,89475,-0,1047379
0,3001154,2,098116E-05,3,9015,-0,8137331,3,9015,0,04834058,3,9015,-0,1530785,0,3001154,8,560311E-06,3,9015,-0,8781872,3,9015,0,3947814,3,9015,-0,1047379
0,3006346,1,728847E-05,3,90825,-0,8258182,3,90825,0,05236896,3,90825,-0,1530785,0,3006346,8,224613E-06,3,90825,-0,8781872,3,90825,0,390753,3,90825,-0,1087663
0,3011538,1,460288E-05,3,915,-0,8419318,3,915,0,05236896,3,915,-0,1571069,0,3011538,7,217517E-06,3,915,-0,8862439,3,915,0,3947814,3,915,-0,09668116
0,3016731,1,460288E-05,3,92175,-0,8580453,3,92175,0,05236896,3,92175,-0,1490501,0,3016731,5,203327E-06,3,92175,-0,8902723,3,92175,0,4068666,3,92175,-0,09265278
0,3021923,1,426719E-05,3,9285,-0,8620737,3,9285,0,05236896,3,9285,-0,1490501,0,3021923,3,021286E-06,3,9285,-0,9063858,3,9285,0,4149233,3,9285,-0,09265278
0,3027115,1,460288E-05,3,93525,-0,8741588,3,93525,0,06042573,3,93525,-0,1530785,0,3027115,2,517739E-06,3,93525,-0,9184711,3,93525,0,4270085,3,93525,-0,0886244
0,3032308,1,947051E-05,3,942,-0,8741588,3,942,0,07251087,3,942,-0,1611353,0,3032308,4,196231E-06,3,942,-0,9265279,3,942,0,4229801,3,942,-0,09265278
0,30375,2,198825E-05,3,94875,-0,8701304,3,94875,0,07653925,3,94875,-0,169192,0,30375,3,524834E-06,3,94875,-0,9265279,3,94875,0,4270085,3,94875,-0,08056764
0,3042692,1,510643E-05,3,9555,-0,8701304,3,9555,0,08056764,3,9555,-0,169192,0,3042692,2,517739E-06,3,9555,-0,9265279,3,9555,0,4270085,3,9555,-0,0886244
0,3047885,2,18204E-06,3,96225,-0,8499885,3,96225,0,08056764,3,96225,-0,1651637,0,3047885,5,539025E-06,3,96225,-0,9144427,3,96225,0,4229801,3,96225,-0,0886244
0,3053077,-1,02388E-05,3,969,-0,8379034,3,969,0,08056764,3,969,-0,1611353,0,3053077,6,71397E-06,3,969,-0,8983291,3,969,0,4108949,3,969,-0,08459602
0,3058269,-1,661708E-05,3,97575,-0,8298466,3,97575,0,07251087,3,97575,-0,1530785,0,3058269,7,217517E-06,3,97575,-0,8862439,3,97575,0,3988098,3,97575,-0,09668116
0,3063461,-1,661708E-05,3,9825,-0,8217899,3,9825,0,06042573,3,9825,-0,1530785,0,3063461,1,007095E-05,3,9825,-0,8781872,3,9825,0,3826963,3,9825,-0,1007095
0,3068654,-1,359579E-05,3,98925,-0,8097047,3,98925,0,05639734,3,98925,-0,1611353,0,3068654,1,15816E-05,3,98925,-0,866102,3,98925,0,3706111,3,98925,-0,09265278
0,3073846,-9,231708E-06,3,996,-0,8097047,3,996,0,04834058,3,996,-0,1611353,0,3073846,1,02388E-05,3,996,-0,866102,3,996,0,358526,3,996,-0,0886244
0,3079039,-6,210422E-06,4,00275,-0,8097047,4,00275,0,05236896,4,00275,-0,1651637,0,3079039,1,05745E-05,4,00275,-0,8701304,4,00275,0,358526,4,00275,-0,09265278
0,3084231,-5,035478E-07,4,0095,-0,8177615,4,0095,0,05236896,4,0095,-0,1812772,0,3084231,1,225299E-05,4,0095,-0,8781872,4,0095,0,3464408,4,0095,-0,0886244
0,3089423,4,196231E-06,4,01625,-0,8258182,4,01625,0,05639734,4,01625,-0,1853056,0,3089423,1,19173E-05,4,01625,-0,8862439,4,01625,0,3504692,4,01625,-0,09265278
0,3094615,6,881819E-06,4,023,-0,833875,4,023,0,05639734,4,023,-0,1893339,0,3094615,9,903106E-06,4,023,-0,8983291,4,023,0,3504692,4,023,-0,09668116
0,3099808,3,692683E-06,4,02975,-0,8419318,4,02975,0,07251087,4,02975,-0,1893339,0,3099808,8,89601E-06,4,02975,-0,9063858,4,02975,0,358526,4,02975,-0,09668116
0,3105,-9,735257E-06,4,0365,-0,8499885,4,0365,0,07653925,4,0365,-0,1893339,0,3105,9,735257E-06,4,0365,-0,9104142,4,0365,0,3625543,4,0365,-0,1007095
0,3110192,-2,534523E-05,4,04325,-0,8620737,4,04325,0,08459602,4,04325,-0,1853056,0,3110192,1,02388E-05,4,04325,-0,9184711,4,04325,0,3746395,4,04325,-0,1047379
0,3115385,-3,004501E-05,4,05,-0,8540169,4,05,0,07653925,4,05,-0,1772488,0,3115385,1,05745E-05,4,05,-0,9224994,4,05,0,3786679,4,05,-0,1168231
0,3120577,-2,903792E-05,4,05675,-0,8540169,4,05675,0,06848249,4,05675,-0,169192,0,3120577,9,231708E-06,4,05675,-0,9144427,4,05675,0,3988098,4,05675,-0,1168231
0,3125769,-2,870222E-05,4,0635,-0,8419318,4,0635,0,06042573,4,0635,-0,1611353,0,3125769,4,867628E-06,4,0635,-0,9104142,4,0635,0,3988098,4,0635,-0,1289082
0,3130962,-2,500954E-05,4,07025,-0,8298466,4,07025,0,0443122,4,07025,-0,1571069,0,3130962,8,392462E-07,4,07025,-0,8983291,4,07025,0,4108949,4,07025,-0,1248798
0,3136154,-1,510643E-05,4,077,-0,8258182,4,077,0,03222705,4,077,-0,1530785,0,3136154,-1,678492E-06,4,077,-0,8862439,4,077,0,4108949,4,077,-0,1289082
0,3141346,0,4,08375,-0,8177615,4,08375,0,02819867,4,08375,-0,1530785,0,3141346,-2,685588E-06,4,08375,-0,8701304,4,08375,0,4068666,4,08375,-0,1208515
0,3146538,2,081331E-05,4,0905,-0,8137331,4,0905,0,02014191,4,0905,-0,1530785,0,3146538,-1,510643E-06,4,0905,-0,866102,4,0905,0,4108949,4,0905,-0,1208515
0,3151731,4,246586E-05,4,09725,-0,8177615,4,09725,0,02417029,4,09725,-0,1530785,0,3151731,1,510643E-06,4,09725,-0,8620737,4,09725,0,4108949,4,09725,-0,1087663
0,3156923,6,428627E-05,4,104,-0,8217899,4,104,0,03222705,4,104,-0,1571069,0,3156923,5,539025E-06,4,104,-0,8741588,4,104,0,4068666,4,104,-0,1047379
0,3162116,8,778515E-05,4,11075,-0,8298466,4,11075,0,04028382,4,11075,-0,1530785,0,3162116,7,217517E-06,4,11075,-0,8862439,4,11075,0,4068666,4,11075,-0,09668116
0,3167308,0,0001077592,4,1175,-0,8499885,4,1175,0,05236896,4,1175,-0,1611353,0,3167308,5,203327E-06,4,1175,-0,9104142,4,1175,0,3988098,4,1175,-0,09668116
0,31725,0,0001206836,4,12425,-0,866102,4,12425,0,06848249,4,12425,-0,1651637,0,31725,3,860533E-06,4,12425,-0,9265279,4,12425,0,4028382,4,12425,-0,09668116
0,3177692,0,0001260548,4,131,-0,8822156,4,131,0,0886244,4,131,-0,1772488,0,3177692,4,531929E-06,4,131,-0,9466697,4,131,0,3988098,4,131,-0,09265278
0,3182885,0,0001216907,4,13775,-0,8781872,4,13775,0,1007095,4,13775,-0,1812772,0,3182885,8,89601E-06,4,13775,-0,9587549,4,13775,0,3988098,4,13775,-0,09265278
0,3188077,0,0001099413,4,1445,-0,866102,4,1445,0,1087663,4,1445,-0,1772488,0,3188077,1,292439E-05,4,1445,-0,9506981,4,1445,0,3947814,4,1445,-0,09668116
0,3193269,9,584192E-05,4,15125,-0,8499885,4,15125,0,1087663,4,15125,-0,1772488,0,3193269,1,527428E-05,4,15125,-0,9345846,4,15125,0,3665827,4,15125,-0,1087663
0,3198462,8,308538E-05,4,158,-0,833875,4,158,0,1047379,4,158,-0,1772488,0,3198462,1,426719E-05,4,158,-0,9144427,4,158,0,3504692,4,158,-0,1127947
0,3203654,7,637141E-05,4,16475,-0,8217899,4,16475,0,09265278,4,16475,-0,1772488,0,3203654,9,735257E-06,4,16475,-0,8983291,4,16475,0,3262989,4,16475,-0,1208515
0,3208846,7,167162E-05,4,1715,-0,8258182,4,1715,0,08056764,4,1715,-0,1812772,0,3208846,8,392462E-06,4,1715,-0,8822156,4,1715,0,3262989,4,1715,-0,1168231
0,3214039,6,730755E-05,4,17825,-0,8298466,4,17825,0,07251087,4,17825,-0,1732204,0,3214039,1,393149E-05,4,17825,-0,8862439,4,17825,0,3262989,4,17825,-0,1168231
0,3219231,6,697185E-05,4,185,-0,8379034,4,185,0,06042573,4,185,-0,1812772,0,3219231,2,014191E-05,4,185,-0,8862439,4,185,0,3383841,4,185,-0,1208515
0,3224423,6,797894E-05,4,19175,-0,8419318,4,19175,0,05639734,4,19175,-0,1853056,0,3224423,2,383459E-05,4,19175,-0,8902723,4,19175,0,3544976,4,19175,-0,1127947
0,3229615,6,428627E-05,4,1985,-0,8379034,4,1985,0,06445411,4,1985,-0,1853056,0,3229615,2,534523E-05,4,1985,-0,9023575,4,1985,0,3625543,4,1985,-0,09668116
0,3234808,5,421531E-05,4,20525,-0,8217899,4,20525,0,06848249,4,20525,-0,1772488,0,3234808,2,668803E-05,4,20525,-0,9023575,4,20525,0,3826963,4,20525,-0,1007095
0,324,4,33051E-05,4,212,-0,7976196,4,212,0,07653925,4,212,-0,169192,0,324,2,735943E-05,4,212,-0,8983291,4,212,0,3947814,4,212,-0,0886244
0,3245192,3,239491E-05,4,21875,-0,7855344,4,21875,0,08056764,4,21875,-0,1571069,0,3245192,2,601663E-05,4,21875,-0,8943007,4,21875,0,4028382,4,21875,-0,08459602
0,3250385,2,28275E-05,4,2255,-0,7855344,4,2255,0,07251087,4,2255,-0,1450217,0,3250385,2,635233E-05,4,2255,-0,8943007,4,2255,0,4068666,4,2255,-0,08459602
0,3255577,1,426719E-05,4,23225,-0,8056763,4,23225,0,06445411,4,23225,-0,1450217,0,3255577,2,702373E-05,4,23225,-0,8902723,4,23225,0,4028382,4,23225,-0,07653925
0,3260769,7,721065E-06,4,239,-0,833875,4,239,0,05639734,4,239,-0,1490501,0,3260769,2,534523E-05,4,239,-0,8983291,4,239,0,4028382,4,239,-0,06848249
0,3265962,4,196231E-06,4,24575,-0,866102,4,24575,0,05236896,4,24575,-0,1530785,0,3265962,2,433814E-05,4,24575,-0,9063858,4,24575,0,3988098,4,24575,-0,05236896
0,3271154,1,174945E-06,4,2525,-0,8902723,4,2525,0,06042573,4,2525,-0,1530785,0,3271154,2,198825E-05,4,2525,-0,9144427,4,2525,0,390753,4,2525,-0,04834058
0,3276346,-2,853437E-06,4,25925,-0,8943007,4,25925,0,07653925,4,25925,-0,1571069,0,3276346,1,728847E-05,4,25925,-0,9224994,4,25925,0,3867247,4,25925,-0,03625543
0,3281538,-8,392462E-06,4,266,-0,8943007,4,266,0,0886244,4,266,-0,1611353,0,3281538,1,12459E-05,4,266,-0,9265279,4,266,0,3625543,4,266,-0,06042573
0,3286731,-1,896696E-05,4,27275,-0,8701304,4,27275,0,1007095,4,27275,-0,169192,0,3286731,7,888914E-06,4,27275,-0,9184711,4,27275,0,3544976,4,27275,-0,07251087
0,3291923,-3,172351E-05,4,2795,-0,8379034,4,2795,0,1047379,4,2795,-0,1772488,0,3291923,7,217517E-06,4,2795,-0,9023575,4,2795,0,3383841,4,2795,-0,0886244
0,3297116,-4,145876E-05,4,28625,-0,8097047,4,28625,0,09668116,4,28625,-0,1772488,0,3297116,3,860533E-06,4,28625,-0,8862439,4,28625,0,3383841,4,28625,-0,1007095
0,3302308,-4,766919E-05,4,293,-0,7855344,4,293,0,09265278,4,293,-0,1812772,0,3302308,-1,678492E-06,4,293,-0,8701304,4,293,0,3383841,4,293,-0,1127947
0,33075,-4,968337E-05,4,29975,-0,7774777,4,29975,0,08056764,4,29975,-0,1732204,0,33075,-5,371176E-06,4,29975,-0,8620737,4,29975,0,3383841,4,29975,-0,1168231
0,3312692,-4,750134E-05,4,3065,-0,7895628,4,3065,0,06848249,4,3065,-0,1772488,0,3312692,-4,531929E-06,4,3065,-0,8540169,4,3065,0,3343557,4,3065,-0,1208515
0,3317885,-4,59907E-05,4,31325,-0,801648,4,31325,0,06445411,4,31325,-0,1812772,0,3317885,-1,678492E-06,4,31325,-0,8620737,4,31325,0,3383841,4,31325,-0,1248798
0,3323077,-4,49836E-05,4,32,-0,8217899,4,32,0,05639734,4,32,-0,1893339,0,3323077,-3,356985E-07,4,32,-0,8781872,4,32,0,3383841,4,32,-0,1168231
0,3328269,-3,910888E-05,4,32675,-0,833875,4,32675,0,05639734,4,32675,-0,1973907,0,3328269,-3,356985E-07,4,32675,-0,8862439,4,32675,0,3424124,4,32675,-0,1127947
0,3333462,-2,836652E-05,4,3335,-0,8540169,4,3335,0,06042573,4,3335,-0,2014191,0,3333462,2,18204E-06,4,3335,-0,9104142,4,3335,0,3464408,4,3335,-0,1168231
0,3338654,-1,963836E-05,4,34025,-0,866102,4,34025,0,07653925,4,34025,-0,2014191,0,3338654,3,860533E-06,4,34025,-0,9265279,4,34025,0,3544976,4,34025,-0,1087663
0,3343846,-1,661708E-05,4,347,-0,8701304,4,347,0,08056764,4,347,-0,1973907,0,3343846,1,510643E-06,4,347,-0,9345846,4,347,0,358526,4,347,-0,1087663
0,3349038,-1,896696E-05,4,35375,-0,866102,4,35375,0,1047379,4,35375,-0,1893339,0,3349038,2,517739E-06,4,35375,-0,9426414,4,35375,0,3625543,4,35375,-0,1047379
0,3354231,-2,014191E-05,4,3605,-0,8620737,4,3605,0,1208515,4,3605,-0,1732204,0,3354231,5,203327E-06,4,3605,-0,9506981,4,3605,0,3665827,4,3605,-0,1007095
0,3359423,-1,997406E-05,4,36725,-0,866102,4,36725,0,1248798,4,36725,-0,1611353,0,3359423,4,531929E-06,4,36725,-0,9547265,4,36725,0,3665827,4,36725,-0,08056764
0,3364615,-2,030976E-05,4,374,-0,866102,4,374,0,1248798,4,374,-0,1450217,0,3364615,1,510643E-06,4,374,-0,9506981,4,374,0,3746395,4,374,-0,06848249
0,3369808,-2,098116E-05,4,38075,-0,8822156,4,38075,0,1329366,4,38075,-0,1409934,0,3369808,-5,035478E-07,4,38075,-0,9587549,4,38075,0,3826963,4,38075,-0,06042573
0,3375,-2,131685E-05,4,3875,-0,8862439,4,3875,0,1329366,4,3875,-0,1490501,0,3375,-1,678492E-07,4,3875,-0,9627832,4,3875,0,3867247,4,3875,-0,05639734
0,3380192,-1,829557E-05,4,39425,-0,8902723,4,39425,0,136965,4,39425,-0,1571069,0,3380192,1,678492E-07,4,39425,-0,9627832,4,39425,0,390753,4,39425,-0,04834058
0,3385385,-1,15816E-05,4,401,-0,8822156,4,401,0,1329366,4,401,-0,1611353,0,3385385,1,174945E-06,4,401,-0,9627832,4,401,0,3786679,4,401,-0,05236896
0,3390577,-3,860533E-06,4,40775,-0,8701304,4,40775,0,1289082,4,40775,-0,1611353,0,3390577,5,874724E-06,4,40775,-0,9547265,4,40775,0,3746395,4,40775,-0,0443122
0,3395769,5,203327E-06,4,4145,-0,8620737,4,4145,0,1208515,4,4145,-0,169192,0,3395769,9,567407E-06,4,4145,-0,9547265,4,4145,0,3665827,4,4145,-0,04834058
0,3400961,1,728847E-05,4,42125,-0,8580453,4,42125,0,1127947,4,42125,-0,1732204,0,3400961,1,02388E-05,4,42125,-0,9386129,4,42125,0,3665827,4,42125,-0,04834058
0,3406154,3,30663E-05,4,428,-0,8459601,4,428,0,09265278,4,428,-0,1772488,0,3406154,8,560311E-06,4,428,-0,9345846,4,428,0,358526,4,428,-0,06042573
0,3411346,4,884413E-05,4,43475,-0,8379034,4,43475,0,08459602,4,43475,-0,1732204,0,3411346,7,553216E-06,4,43475,-0,9265279,4,43475,0,3504692,4,43475,-0,07251087
0,3416539,5,925078E-05,4,4415,-0,833875,4,4415,0,06445411,4,4415,-0,1812772,0,3416539,7,721065E-06,4,4415,-0,9104142,4,4415,0,3424124,4,4415,-0,07653925
0,3421731,6,495766E-05,4,44825,-0,8258182,4,44825,0,05236896,4,44825,-0,1812772,0,3421731,1,007095E-05,4,44825,-0,9023575,4,44825,0,3383841,4,44825,-0,1047379
0,3426923,6,865034E-05,4,455,-0,8177615,4,455,0,04028382,4,455,-0,1893339,0,3426923,1,426719E-05,4,455,-0,8983291,4,455,0,3303273,4,455,-0,1168231
0,3432115,6,478981E-05,4,46175,-0,8258182,4,46175,0,02417029,4,46175,-0,1893339,0,3432115,1,426719E-05,4,46175,-0,8862439,4,46175,0,3262989,4,46175,-0,1329366
0,3437308,4,917983E-05,4,4685,-0,8258182,4,4685,0,01611353,4,4685,-0,1933623,0,3437308,1,19173E-05,4,4685,-0,8822156,4,4685,0,3343557,4,4685,-0,1490501
0,34425,2,601663E-05,4,47525,-0,8298466,4,47525,0,01208515,4,47525,-0,2014191,0,34425,1,19173E-05,4,47525,-0,8822156,4,47525,0,3464408,4,47525,-0,1651637
0,3447692,-3,189135E-06,4,482,-0,8298466,4,482,0,01208515,4,482,-0,2094758,0,3447692,1,326009E-05,4,482,-0,8781872,4,482,0,3504692,4,482,-0,1812772
0,3452885,-3,30663E-05,4,48875,-0,8217899,4,48875,0,01611353,4,48875,-0,2175326,0,3452885,1,510643E-05,4,48875,-0,8781872,4,48875,0,3625543,4,48875,-0,1853056
0,3458077,-5,572595E-05,4,4955,-0,8217899,4,4955,0,02014191,4,4955,-0,2175326,0,3458077,1,695277E-05,4,4955,-0,8741588,4,4955,0,3706111,4,4955,-0,1933623
0,3463269,-6,865034E-05,4,50225,-0,8097047,4,50225,0,02819867,4,50225,-0,2135042,0,3463269,1,577783E-05,4,50225,-0,8701304,4,50225,0,3706111,4,50225,-0,1933623
0,3468462,-7,9057E-05,4,509,-0,8056763,4,509,0,02819867,4,509,-0,2175326,0,3468462,1,292439E-05,4,509,-0,8620737,4,509,0,3706111,4,509,-0,1933623
0,3473654,-9,047074E-05,4,51575,-0,7976196,4,51575,0,04028382,4,51575,-0,221561,0,3473654,9,567407E-06,4,51575,-0,8580453,4,51575,0,3665827,4,51575,-0,1853056
0,3478846,-9,684901E-05,4,5225,-0,7976196,4,5225,0,05236896,4,5225,-0,2175326,0,3478846,6,71397E-06,4,5225,-0,8580453,4,5225,0,3625543,4,5225,-0,1732204
0,3484038,-9,282064E-05,4,52925,-0,8097047,4,52925,0,06445411,4,52925,-0,2094758,0,3484038,5,874724E-06,4,52925,-0,866102,4,52925,0,3665827,4,52925,-0,1571069
0,3489231,-7,821775E-05,4,536,-0,8258182,4,536,0,08056764,4,536,-0,2094758,0,3489231,3,860533E-06,4,536,-0,8822156,4,536,0,3706111,4,536,-0,1409934
0,3494423,-5,992218E-05,4,54275,-0,8419318,4,54275,0,09668116,4,54275,-0,2014191,0,3494423,-2,014191E-06,4,54275,-0,8983291,4,54275,0,3746395,4,54275,-0,1208515
0,3499615,-4,59907E-05,4,5495,-0,8580453,4,5495,0,1087663,4,5495,-0,2054475,0,3499615,-5,874724E-06,4,5495,-0,9104142,4,5495,0,3746395,4,5495,-0,1208515
0,3504808,-3,3402E-05,4,55625,-0,8620737,4,55625,0,1248798,4,55625,-0,2014191,0,3504808,-5,539025E-06,4,55625,-0,9265279,4,55625,0,3786679,4,55625,-0,1047379
0,351,-2,030976E-05,4,563,-0,866102,4,563,0,1248798,4,563,-0,1973907,0,351,-3,524834E-06,4,563,-0,9386129,4,563,0,3826963,4,563,-0,09668116
0,3515192,-7,385367E-06,4,56975,-0,866102,4,56975,0,1289082,4,56975,-0,1933623,0,3515192,-1,510643E-06,4,56975,-0,9426414,4,56975,0,390753,4,56975,-0,0886244
0,3520385,5,539025E-06,4,5765,-0,8580453,4,5765,0,1289082,4,5765,-0,1812772,0,3520385,8,392462E-07,4,5765,-0,9466697,4,5765,0,3786679,4,5765,-0,08459602
0,3525577,2,265965E-05,4,58325,-0,8580453,4,58325,0,1289082,4,58325,-0,1772488,0,3525577,3,860533E-06,4,58325,-0,9386129,4,58325,0,3826963,4,58325,-0,08459602
0,3530769,4,448005E-05,4,59,-0,8540169,4,59,0,1168231,4,59,-0,1772488,0,3530769,4,867628E-06,4,59,-0,9345846,4,59,0,3706111,4,59,-0,08056764
0,3535962,6,64683E-05,4,59675,-0,8620737,4,59675,0,1047379,4,59675,-0,1611353,0,3535962,0,4,59675,-0,9345846,4,59675,0,358526,4,59675,-0,08056764
0,3541154,8,291753E-05,4,6035,-0,8620737,4,6035,0,08459602,4,6035,-0,1571069,0,3541154,-5,539025E-06,4,6035,-0,9224994,4,6035,0,3544976,4,6035,-0,07653925
0,3546346,9,466698E-05,4,61025,-0,8580453,4,61025,0,07251087,4,61025,-0,1530785,0,3546346,-4,531929E-06,4,61025,-0,9305562,4,61025,0,3424124,4,61025,-0,08056764
0,3551539,0,0001055772,4,617,-0,8620737,4,617,0,05639734,4,617,-0,1530785,0,3551539,-1,007096E-06,4,617,-0,9265279,4,617,0,3383841,4,617,-0,08459602
0,3556731,0,0001153124,4,62375,-0,866102,4,62375,0,05236896,4,62375,-0,1611353,0,3556731,2,517739E-06,4,62375,-0,9224994,4,62375,0,3262989,4,62375,-0,08056764
0,3561923,0,0001226978,4,6305,-0,8620737,4,6305,0,04028382,4,6305,-0,169192,0,3561923,6,210422E-06,4,6305,-0,9386129,4,6305,0,3222705,4,6305,-0,0886244
0,3567115,0,0001267262,4,63725,-0,8580453,4,63725,0,03625543,4,63725,-0,1772488,0,3567115,8,560311E-06,4,63725,-0,9386129,4,63725,0,3303273,4,63725,-0,09668116
0,3572308,0,0001279011,4,644,-0,8499885,4,644,0,03625543,4,644,-0,1812772,0,3572308,8,89601E-06,4,644,-0,9386129,4,644,0,3383841,4,644,-0,1047379
0,35775,0,0001238727,4,65075,-0,8379034,4,65075,0,04028382,4,65075,-0,1893339,0,35775,9,903106E-06,4,65075,-0,9265279,4,65075,0,3424124,4,65075,-0,1208515
0,3582692,0,0001153124,4,6575,-0,833875,4,6575,0,04028382,4,6575,-0,1973907,0,3582692,1,258869E-05,4,6575,-0,9184711,4,6575,0,3504692,4,6575,-0,1248798
0,3587885,0,0001082628,4,66425,-0,833875,4,66425,0,05236896,4,66425,-0,2014191,0,3587885,1,712062E-05,4,66425,-0,9104142,4,66425,0,3504692,4,66425,-0,136965
0,3593077,0,0001008774,4,671,-0,8379034,4,671,0,05236896,4,671,-0,2014191,0,3593077,1,896696E-05,4,671,-0,9023575,4,671,0,3544976,4,671,-0,1409934
0,3598269,9,181354E-05,4,67775,-0,8217899,4,67775,0,04834058,4,67775,-0,1973907,0,3598269,1,947051E-05,4,67775,-0,8943007,4,67775,0,3424124,4,67775,-0,1450217
0,3603462,7,77142E-05,4,6845,-0,8177615,4,6845,0,05236896,4,6845,-0,1973907,0,3603462,2,131685E-05,4,6845,-0,8822156,4,6845,0,3424124,4,6845,-0,1490501
0,3608654,5,975433E-05,4,69125,-0,801648,4,69125,0,05639734,4,69125,-0,1973907,0,3608654,2,265965E-05,4,69125,-0,8781872,4,69125,0,3424124,4,69125,-0,1530785
0,3613846,3,910888E-05,4,698,-0,7976196,4,698,0,06042573,4,698,-0,2014191,0,3613846,2,24918E-05,4,698,-0,866102,4,698,0,3383841,4,698,-0,1571069
0,3619038,2,131685E-05,4,70475,-0,7976196,4,70475,0,06848249,4,70475,-0,2014191,0,3619038,2,467384E-05,4,70475,-0,8701304,4,70475,0,3424124,4,70475,-0,1571069
0,3624231,9,903106E-06,4,7115,-0,801648,4,7115,0,06848249,4,7115,-0,2135042,0,3624231,2,551308E-05,4,7115,-0,8741588,4,7115,0,3544976,4,7115,-0,1571069
0,3629423,1,678492E-07,4,71825,-0,8258182,4,71825,0,07653925,4,71825,-0,2175326,0,3629423,2,333105E-05,4,71825,-0,8822156,4,71825,0,3665827,4,71825,-0,1490501
0,3634616,-1,326009E-05,4,725,-0,8419318,4,725,0,08056764,4,725,-0,2094758,0,3634616,2,081331E-05,4,725,-0,8943007,4,725,0,3786679,4,725,-0,1409934
0,3639808,-2,467384E-05,4,73175,-0,8580453,4,73175,0,09265278,4,73175,-0,2094758,0,3639808,1,510643E-05,4,73175,-0,9023575,4,73175,0,3988098,4,73175,-0,1329366
0,3645,-3,239491E-05,4,7385,-0,866102,4,7385,0,1007095,4,7385,-0,1973907,0,3645,1,09102E-05,4,7385,-0,9224994,4,7385,0,3988098,4,7385,-0,1289082
0,3650192,-3,524834E-05,4,74525,-0,866102,4,74525,0,1087663,4,74525,-0,1893339,0,3650192,8,392462E-06,4,74525,-0,9265279,4,74525,0,4068666,4,74525,-0,1208515
0,3655385,-3,37377E-05,4,752,-0,866102,4,752,0,1087663,4,752,-0,1853056,0,3655385,7,049668E-06,4,752,-0,9386129,4,752,0,4028382,4,752,-0,1127947
0,3660577,-2,769513E-05,4,75875,-0,8620737,4,75875,0,1087663,4,75875,-0,1732204,0,3660577,7,217517E-06,4,75875,-0,9426414,4,75875,0,3988098,4,75875,-0,1047379
0,3665769,-2,18204E-05,4,7655,-0,8620737,4,7655,0,09668116,4,7655,-0,1772488,0,3665769,7,721065E-06,4,7655,-0,9426414,4,7655,0,3947814,4,7655,-0,09668116
0,3670962,-1,577783E-05,4,77225,-0,8620737,4,77225,0,09668116,4,77225,-0,1772488,0,3670962,6,54612E-06,4,77225,-0,9386129,4,77225,0,3826963,4,77225,-0,09265278
0,3676154,-1,141375E-05,4,779,-0,8499885,4,779,0,0886244,4,779,-0,1772488,0,3676154,3,524834E-06,4,779,-0,9345846,4,779,0,3625543,4,779,-0,0886244
0,3681346,-1,225299E-05,4,78575,-0,8459601,4,78575,0,07251087,4,78575,-0,1893339,0,3681346,1,678492E-06,4,78575,-0,9224994,4,78575,0,3424124,4,78575,-0,09265278
0,3686539,-1,695277E-05,4,7925,-0,8419318,4,7925,0,06445411,4,7925,-0,1933623,0,3686539,1,174945E-06,4,7925,-0,9144427,4,7925,0,3222705,4,7925,-0,09265278
0,3691731,-2,098116E-05,4,79925,-0,833875,4,79925,0,06445411,4,79925,-0,1933623,0,3691731,2,517739E-06,4,79925,-0,9063858,4,79925,0,306157,4,79925,-0,1007095
0,3696923,-2,500954E-05,4,806,-0,8298466,4,806,0,06042573,4,806,-0,2014191,0,3696923,3,189135E-06,4,806,-0,9063858,4,806,0,306157,4,806,-0,1087663
0,3702115,-3,138781E-05,4,81275,-0,8379034,4,81275,0,06848249,4,81275,-0,2094758,0,3702115,1,678492E-07,4,81275,-0,9063858,4,81275,0,2940719,4,81275,-0,1127947
0,3707308,-3,776608E-05,4,8195,-0,8419318,4,8195,0,07251087,4,8195,-0,2094758,0,3707308,-4,196231E-06,4,8195,-0,9104142,4,8195,0,2981002,4,8195,-0,1168231
0,37125,-3,726253E-05,4,82625,-0,8459601,4,82625,0,07251087,4,82625,-0,1973907,0,37125,-2,18204E-06,4,82625,-0,9144427,4,82625,0,3021286,4,82625,-0,1208515
0,3717692,-3,37377E-05,4,833,-0,8499885,4,833,0,07653925,4,833,-0,1973907,0,3717692,3,860533E-06,4,833,-0,9224994,4,833,0,306157,4,833,-0,1208515
0,3722885,-3,071641E-05,4,83975,-0,8540169,4,83975,0,08459602,4,83975,-0,1933623,0,3722885,7,888914E-06,4,83975,-0,9345846,4,83975,0,3222705,4,83975,-0,1289082
0,3728077,-2,366674E-05,4,8465,-0,8540169,4,8465,0,08056764,4,8465,-0,1893339,0,3728077,9,903106E-06,4,8465,-0,9386129,4,8465,0,3303273,4,8465,-0,1329366
0,3733269,-1,02388E-05,4,85325,-0,8580453,4,85325,0,08459602,4,85325,-0,1772488,0,3733269,9,735257E-06,4,85325,-0,9386129,4,85325,0,3504692,4,85325,-0,1248798
0,3738461,3,860533E-06,4,86,-0,8499885,4,86,0,07653925,4,86,-0,1772488,0,3738461,9,063859E-06,4,86,-0,9386129,4,86,0,3625543,4,86,-0,1248798
0,3743654,1,728847E-05,4,86675,-0,8459601,4,86675,0,07251087,4,86675,-0,1812772,0,3743654,6,71397E-06,4,86675,-0,9345846,4,86675,0,3665827,4,86675,-0,1208515
0,3748846,2,534523E-05,4,8735,-0,8419318,4,8735,0,08056764,4,8735,-0,1853056,0,3748846,4,196231E-06,4,8735,-0,9265279,4,8735,0,3746395,4,8735,-0,1127947
0,3754039,2,500954E-05,4,88025,-0,8419318,4,88025,0,08459602,4,88025,-0,1893339,0,3754039,3,860533E-06,4,88025,-0,9144427,4,88025,0,3826963,4,88025,-0,1047379
0,3759231,2,333105E-05,4,887,-0,8419318,4,887,0,09265278,4,887,-0,1893339,0,3759231,3,189135E-06,4,887,-0,9063858,4,887,0,3706111,4,887,-0,1047379
0,3764423,2,500954E-05,4,89375,-0,833875,4,89375,0,09265278,4,89375,-0,1893339,0,3764423,2,18204E-06,4,89375,-0,8943007,4,89375,0,3826963,4,89375,-0,1007095
0,3769615,2,534523E-05,4,9005,-0,8298466,4,9005,0,09265278,4,9005,-0,1933623,0,3769615,2,18204E-06,4,9005,-0,8943007,4,9005,0,3706111,4,9005,-0,1087663
0,3774808,2,131685E-05,4,90725,-0,8217899,4,90725,0,09265278,4,90725,-0,1933623,0,3774808,2,517739E-06,4,90725,-0,8862439,4,90725,0,3665827,4,90725,-0,1087663
0,378,1,695277E-05,4,914,-0,8298466,4,914,0,09265278,4,914,-0,1893339,0,378,3,189135E-06,4,914,-0,8902723,4,914,0,358526,4,914,-0,1168231
0,3785192,1,326009E-05,4,92075,-0,8258182,4,92075,0,09265278,4,92075,-0,1933623,0,3785192,6,881819E-06,4,92075,-0,8943007,4,92075,0,358526,4,92075,-0,1168231
0,3790385,8,392462E-06,4,9275,-0,8258182,4,9275,0,0886244,4,9275,-0,1933623,0,3790385,9,567407E-06,4,9275,-0,9023575,4,9275,0,3504692,4,9275,-0,1248798
0,3795577,-1,846342E-06,4,93425,-0,8298466,4,93425,0,0886244,4,93425,-0,1933623,0,3795577,1,02388E-05,4,93425,-0,9063858,4,93425,0,3504692,4,93425,-0,1289082
0,3800769,-1,309224E-05,4,941,-0,8379034,4,941,0,08459602,4,941,-0,1933623,0,3800769,1,15816E-05,4,941,-0,9104142,4,941,0,3504692,4,941,-0,1329366
0,3805962,-2,030976E-05,4,94775,-0,8419318,4,94775,0,08056764,4,94775,-0,1933623,0,3805962,1,05745E-05,4,94775,-0,9063858,4,94775,0,3544976,4,94775,-0,136965
0,3811154,-2,299535E-05,4,9545,-0,8379034,4,9545,0,07653925,4,9545,-0,1933623,0,3811154,9,567407E-06,4,9545,-0,9144427,4,9545,0,3464408,4,9545,-0,136965
0,3816346,-2,400244E-05,4,96125,-0,8499885,4,96125,0,07653925,4,96125,-0,1893339,0,3816346,7,888914E-06,4,96125,-0,9144427,4,96125,0,3464408,4,96125,-0,1329366
0,3821538,-2,702373E-05,4,968,-0,8459601,4,968,0,06848249,4,968,-0,1853056,0,3821538,9,231708E-06,4,968,-0,9224994,4,968,0,3504692,4,968,-0,1248798
0,3826731,-4,36408E-05,4,97475,-0,8499885,4,97475,0,06848249,4,97475,-0,1853056,0,3826731,1,05745E-05,4,97475,-0,9224994,4,97475,0,3544976,4,97475,-0,1168231
0,3831923,-6,898604E-05,4,9815,-0,8459601,4,9815,0,06445411,4,9815,-0,1812772,0,3831923,9,735257E-06,4,9815,-0,9144427,4,9815,0,3424124,4,9815,-0,1127947
0,3837115,-8,157473E-05,4,98825,-0,8419318,4,98825,0,06042573,4,98825,-0,1853056,0,3837115,7,217517E-06,4,98825,-0,9184711,4,98825,0,3424124,4,98825,-0,1007095
0,3842308,-7,87213E-05,4,995,-0,8419318,4,995,0,06042573,4,995,-0,1853056,0,3842308,6,210422E-06,4,995,-0,9144427,4,995,0,3383841,4,995,-0,1047379
0,38475,-7,570001E-05,5,00175,-0,8419318,5,00175,0,06042573,5,00175,-0,1812772,0,38475,7,217517E-06,5,00175,-0,9144427,5,00175,0,3383841,5,00175,-0,1007095
0,3852692,-7,754636E-05,5,0085,-0,833875,5,0085,0,06042573,5,0085,-0,1812772,0,3852692,6,881819E-06,5,0085,-0,9144427,5,0085,0,3504692,5,0085,-0,1047379
0,3857885,-7,536431E-05,5,01525,-0,833875,5,01525,0,06848249,5,01525,-0,1772488,0,3857885,7,553216E-06,5,01525,-0,9063858,5,01525,0,3504692,5,01525,-0,09668116
0,3863077,-6,059357E-05,5,022,-0,833875,5,022,0,07653925,5,022,-0,1732204,0,3863077,6,71397E-06,5,022,-0,9063858,5,022,0,3544976,5,022,-0,1047379
0,3868269,-3,793393E-05,5,02875,-0,8419318,5,02875,0,0886244,5,02875,-0,1732204,0,3868269,4,028382E-06,5,02875,-0,9023575,5,02875,0,358526,5,02875,-0,1127947
0,3873461,-1,493858E-05,5,0355,-0,8459601,5,0355,0,0886244,5,0355,-0,1732204,0,3873461,4,196231E-06,5,0355,-0,9063858,5,0355,0,358526,5,0355,-0,1087663
0,3878654,9,063859E-06,5,04225,-0,8499885,5,04225,0,09265278,5,04225,-0,169192,0,3878654,1,174945E-06,5,04225,-0,9104142,5,04225,0,3625543,5,04225,-0,1087663
0,3883846,3,575189E-05,5,049,-0,8540169,5,049,0,1007095,5,049,-0,1732204,0,3883846,-5,035477E-06,5,049,-0,9144427,5,049,0,3665827,5,049,-0,1087663
0,3889039,6,025788E-05,5,05575,-0,8499885,5,05575,0,1047379,5,05575,-0,1732204,0,3889039,-6,210422E-06,5,05575,-0,9265279,5,05575,0,3746395,5,05575,-0,1047379
0,3894231,7,217517E-05,5,0625,-0,8499885,5,0625,0,1047379,5,0625,-0,1732204,0,3894231,-4,028382E-06,5,0625,-0,9265279,5,0625,0,3786679,5,0625,-0,1007095
0,3899423,6,697185E-05,5,06925,-0,8459601,5,06925,0,1007095,5,06925,-0,169192,0,3899423,-5,203327E-06,5,06925,-0,9265279,5,06925,0,3867247,5,06925,-0,09668116
0,3904615,5,052262E-05,5,076,-0,8419318,5,076,0,1007095,5,076,-0,169192,0,3904615,-6,210422E-06,5,076,-0,9265279,5,076,0,3867247,5,076,-0,09668116
0,3909808,3,457694E-05,5,08275,-0,833875,5,08275,0,09668116,5,08275,-0,1651637,0,3909808,-2,853437E-06,5,08275,-0,9265279,5,08275,0,3786679,5,08275,-0,1007095
0,3915,2,18204E-05,5,0895,-0,833875,5,0895,0,09265278,5,0895,-0,169192,0,3915,3,860533E-06,5,0895,-0,9144427,5,0895,0,3706111,5,0895,-0,09265278
0,3920192,6,54612E-06,5,09625,-0,833875,5,09625,0,08459602,5,09625,-0,1732204,0,3920192,9,231708E-06,5,09625,-0,9144427,5,09625,0,3625543,5,09625,-0,1007095
0,3925385,-4,867628E-06,5,103,-0,8379034,5,103,0,07653925,5,103,-0,1772488,0,3925385,1,19173E-05,5,103,-0,9104142,5,103,0,3544976,5,103,-0,1007095
0,3930577,-3,860533E-06,5,10975,-0,8419318,5,10975,0,07653925,5,10975,-0,1772488,0,3930577,1,443503E-05,5,10975,-0,9063858,5,10975,0,3464408,5,10975,-0,1007095
0,3935769,1,19173E-05,5,1165,-0,8419318,5,1165,0,07251087,5,1165,-0,1812772,0,3935769,1,409934E-05,5,1165,-0,9023575,5,1165,0,3424124,5,1165,-0,09668116
0,3940962,4,213016E-05,5,12325,-0,8459601,5,12325,0,07251087,5,12325,-0,1732204,0,3940962,1,258869E-05,5,12325,-0,9104142,5,12325,0,3303273,5,12325,-0,09265278
0,3946154,7,687495E-05,5,13,-0,8499885,5,13,0,08459602,5,13,-0,1772488,0,3946154,1,02388E-05,5,13,-0,9104142,5,13,0,3383841,5,13,-0,0886244
0,3951346,0,0001065843,5,13675,-0,8580453,5,13675,0,09265278,5,13675,-0,169192,0,3951346,7,888914E-06,5,13675,-0,9144427,5,13675,0,3383841,5,13675,-0,08459602
0,3956538,0,0001349508,5,1435,-0,8580453,5,1435,0,1007095,5,1435,-0,1732204,0,3956538,7,888914E-06,5,1435,-0,9265279,5,1435,0,3303273,5,1435,-0,0886244
0,3961731,0,0001589532,5,15025,-0,8499885,5,15025,0,1047379,5,15025,-0,1853056,0,3961731,1,141375E-05,5,15025,-0,9224994,5,15025,0,3424124,5,15025,-0,0886244
0,3966923,0,0001710384,5,157,-0,8459601,5,157,0,1127947,5,157,-0,1933623,0,3966923,1,762417E-05,5,157,-0,9265279,5,157,0,3464408,5,157,-0,1007095
0,3972116,0,0001733883,5,16375,-0,8379034,5,16375,0,1047379,5,16375,-0,1933623,0,3972116,1,930266E-05,5,16375,-0,9224994,5,16375,0,3424124,5,16375,-0,1127947
0,3977308,0,0001710384,5,1705,-0,8217899,5,1705,0,09668116,5,1705,-0,1933623,0,3977308,1,762417E-05,5,1705,-0,9144427,5,1705,0,3424124,5,1705,-0,1248798
0,39825,0,0001623102,5,17725,-0,8177615,5,17725,0,09265278,5,17725,-0,1933623,0,39825,1,695277E-05,5,17725,-0,9023575,5,17725,0,3424124,5,17725,-0,1168231
0,3987692,0,0001435111,5,184,-0,8056763,5,184,0,08459602,5,184,-0,1933623,0,3987692,1,795987E-05,5,184,-0,8943007,5,184,0,3383841,5,184,-0,1329366
0,3992885,0,0001132982,5,19075,-0,8056763,5,19075,0,08459602,5,19075,-0,1812772,0,3992885,1,997406E-05,5,19075,-0,8862439,5,19075,0,3464408,5,19075,-0,1208515
0,3998077,8,174258E-05,5,1975,-0,7976196,5,1975,0,08056764,5,1975,-0,1732204,0,3998077,2,198825E-05,5,1975,-0,8862439,5,1975,0,3504692,5,1975,-0,1208515
0,4003269,5,723659E-05,5,20425,-0,8056763,5,20425,0,08056764,5,20425,-0,1571069,0,4003269,2,014191E-05,5,20425,-0,8822156,5,20425,0,3625543,5,20425,-0,1047379
0,4008462,2,970932E-05,5,211,-0,8177615,5,211,0,07251087,5,211,-0,1490501,0,4008462,1,460288E-05,5,211,-0,8862439,5,211,0,3625543,5,211,-0,09668116
0,4013654,-1,594568E-05,5,21775,-0,8298466,5,21775,0,06848249,5,21775,-0,1409934,0,4013654,7,553216E-06,5,21775,-0,8902723,5,21775,0,3746395,5,21775,-0,0886244
0,4018846,-7,066453E-05,5,2245,-0,833875,5,2245,0,05639734,5,2245,-0,136965,0,4018846,1,846342E-06,5,2245,-0,9023575,5,2245,0,3786679,5,2245,-0,08459602
0,4024039,-0,0001148089,5,23125,-0,8499885,5,23125,0,05639734,5,23125,-0,1409934,0,4024039,-8,392462E-07,5,23125,-0,9104142,5,23125,0,3867247,5,23125,-0,0886244
0,4029231,-0,0001386435,5,238,-0,866102,5,238,0,05639734,5,238,-0,1530785,0,4029231,-2,685588E-06,5,238,-0,9144427,5,238,0,3867247,5,238,-0,09668116
0,4034423,-0,0001386435,5,24475,-0,8781872,5,24475,0,06042573,5,24475,-0,1651637,0,4034423,-2,517739E-06,5,24475,-0,9184711,5,24475,0,3947814,5,24475,-0,1007095
0,4039615,-0,0001203479,5,2515,-0,8781872,5,2515,0,07251087,5,2515,-0,1893339,0,4039615,1,174945E-06,5,2515,-0,9184711,5,2515,0,4068666,5,2515,-0,1047379
0,4044808,-9,349203E-05,5,25825,-0,8701304,5,25825,0,08459602,5,25825,-0,1933623,0,4044808,6,54612E-06,5,25825,-0,9184711,5,25825,0,4028382,5,25825,-0,1007095
0,405,-6,462196E-05,5,265,-0,866102,5,265,0,09668116,5,265,-0,1812772,0,405,1,326009E-05,5,265,-0,9184711,5,265,0,390753,5,265,-0,1047379
0,4055192,-3,642328E-05,5,27175,-0,8540169,5,27175,0,1127947,5,27175,-0,1772488,0,4055192,1,829557E-05,5,27175,-0,9305562,5,27175,0,3706111,5,27175,-0,1087663
0,4060385,-9,063859E-06,5,2785,-0,8419318,5,2785,0,1208515,5,2785,-0,1732204,0,4060385,1,930266E-05,5,2785,-0,9265279,5,2785,0,3464408,5,2785,-0,1168231
0,4065577,1,12459E-05,5,28525,-0,8258182,5,28525,0,1289082,5,28525,-0,169192,0,4065577,2,131685E-05,5,28525,-0,9305562,5,28525,0,3222705,5,28525,-0,1127947
0,4070769,2,198825E-05,5,292,-0,8217899,5,292,0,1329366,5,292,-0,1812772,0,4070769,2,467384E-05,5,292,-0,9345846,5,292,0,3101854,5,292,-0,1087663
