Label: R BICEPS BRACHII: EMG 1 Sampling frequency: 1,925926e+003 Number of points: 58682 start: 0,000000e+000 Unit: Volts Domain Unit: s
Label: R BICEPS BRACHII: Acc 1.X Sampling frequency: 1,481481e+002 Number of points: 4514 start: 0,000000e+000 Unit: g Domain Unit: s
Label: R BICEPS BRACHII: Acc 1.Y Sampling frequency: 1,481481e+002 Number of points: 4514 start: 0,000000e+000 Unit: g Domain Unit: s
Label: R BICEPS BRACHII: Acc 1.Z Sampling frequency: 1,481481e+002 Number of points: 4514 start: 0,000000e+000 Unit: g Domain Unit: s
Label: R TRICEPS BRACHII: EMG 2 Sampling frequency: 1,925926e+003 Number of points: 58682 start: 0,000000e+000 Unit: Volts Domain Unit: s
Label: R TRICEPS BRACHII: Acc 2.X Sampling frequency: 1,481481e+002 Number of points: 4514 start: 0,000000e+000 Unit: g Domain Unit: s
Label: R TRICEPS BRACHII: Acc 2.Y Sampling frequency: 1,481481e+002 Number of points: 4514 start: 0,000000e+000 Unit: g Domain Unit: s
Label: R TRICEPS BRACHII: Acc 2.Z Sampling frequency: 1,481481e+002 Number of points: 4514 start: 0,000000e+000 Unit: g Domain Unit: s
Start Trigger Method: None
Stop Trigger Method: None
 
X[s],"R BICEPS BRACHII: EMG 1",X[s],"R BICEPS BRACHII: Acc 1.X",X[s],"R BICEPS BRACHII: Acc 1.Y",X[s],"R BICEPS BRACHII: Acc 1.Z",X[s],"R TRICEPS BRACHII: EMG 2",X[s],"R TRICEPS BRACHII: Acc 2.X",X[s],"R TRICEPS BRACHII: Acc 2.Y",X[s],"R TRICEPS BRACHII: Acc 2.Z"
0.000000,0,0.000000,0,0.000000,0,0.000000,0,0.000000,0,0.000000,0,0.000000,0,0.000000,0
0,0005192308,0,0,00675,0,0,00675,0,0,00675,0,0,0005192308,0,0,00675,0,0,00675,0,0,00675,0
0,001038462,0,0,0135,0,0,0135,0,0,0135,0,0,001038462,0,0,0135,0,0,0135,0,0,0135,0
0,001557692,0,0,02025,0,0,02025,0,0,02025,0,0,001557692,0,0,02025,0,0,02025,0,0,02025,0
0,002076923,0,0,027,0,0,027,0,0,027,0,0,002076923,0,0,027,0,0,027,0,0,027,0
0,002596154,0,0,03375,0,0,03375,0,0,03375,0,0,002596154,0,0,03375,0,0,03375,0,0,03375,0
0,003115385,0,0,0405,0,0,0405,0,0,0405,0,0,003115385,0,0,0405,0,0,0405,0,0,0405,0
0,003634615,0,0,04725,0,0,04725,0,0,04725,0,0,003634615,0,0,04725,0,0,04725,0,0,04725,0
0,004153846,0,0,054,-0,8580453,0,054,0,03222705,0,054,-0,3142138,0,004153846,0,0,054,-0,9426414,0,054,0,3222705,0,054,-0,2618448
0,004673077,0,0,06075,-0,8620737,0,06075,0,02819867,0,06075,-0,3101854,0,004673077,0,0,06075,-0,9386129,0,06075,0,3262989,0,06075,-0,2578164
0,005192308,0,0,0675,-0,8620737,0,0675,0,03222705,0,0675,-0,306157,0,005192308,0,0,0675,-0,9345846,0,0675,0,3182422,0,0675,-0,2578164
0,005711539,0,0,07425,-0,8701304,0,07425,0,02819867,0,07425,-0,306157,0,005711539,0,0,07425,-0,9345846,0,07425,0,3182422,0,07425,-0,2578164
0,006230769,0,0,081,-0,866102,0,081,0,02417029,0,081,-0,3021286,0,006230769,0,0,081,-0,9426414,0,081,0,3101854,0,081,-0,2537881
0,00675,0,0,08775,-0,866102,0,08775,0,02819867,0,08775,-0,2940719,0,00675,0,0,08775,-0,9506981,0,08775,0,3182422,0,08775,-0,2497597
0,007269231,0,0,0945,-0,8781872,0,0945,0,02819867,0,0945,-0,2940719,0,007269231,0,0,0945,-0,9627832,0,0945,0,3182422,0,0945,-0,2497597
0,007788462,0,0,10125,-0,8902723,0,10125,0,03222705,0,10125,-0,2860151,0,007788462,0,0,10125,-0,9748684,0,10125,0,3222705,0,10125,-0,2417029
0,008307693,0,0,108,-0,9023575,0,108,0,03625543,0,108,-0,2819867,0,008307693,0,0,108,-0,9869535,0,108,0,3142138,0,108,-0,2457313
0,008826924,0,0,11475,-0,9144427,0,11475,0,04834058,0,11475,-0,2779583,0,008826924,0,0,11475,-1,003067,0,11475,0,3182422,0,11475,-0,2296178
0,009346154,0,0,1215,-0,9184711,0,1215,0,05236896,0,1215,-0,2699016,0,009346154,0,0,1215,-1,011124,0,1215,0,3262989,0,1215,-0,2255894
0,009865385,0,0,12825,-0,9144427,0,12825,0,07251087,0,12825,-0,27393,0,009865385,0,0,12825,-1,019181,0,12825,0,3262989,0,12825,-0,2135042
0,01038462,0,0,135,-0,9144427,0,135,0,08056764,0,135,-0,27393,0,01038462,0,0,135,-1,019181,0,135,0,3262989,0,135,-0,2094758
0,01090385,0,0,14175,-0,8983291,0,14175,0,09265278,0,14175,-0,2699016,0,01090385,0,0,14175,-1,023209,0,14175,0,3182422,0,14175,-0,2014191
0,01142308,0,0,1485,-0,8781872,0,1485,0,09265278,0,1485,-0,2658732,0,01142308,0,0,1485,-1,011124,0,1485,0,3021286,0,1485,-0,1973907
0,01194231,0,0,15525,-0,8580453,0,15525,0,09265278,0,15525,-0,2578164,0,01194231,0,0,15525,-0,9990387,0,15525,0,2981002,0,15525,-0,1973907
0,01246154,0,0,162,-0,833875,0,162,0,08056764,0,162,-0,2618448,0,01246154,0,0,162,-0,9869535,0,162,0,2900435,0,162,-0,2054475
0,01298077,0,0,16875,-0,8217899,0,16875,0,06848249,0,16875,-0,2658732,0,01298077,0,0,16875,-0,97084,0,16875,0,2819867,0,16875,-0,2135042
0,0135,0,0,1755,-0,8097047,0,1755,0,04834058,0,1755,-0,27393,0,0135,0,0,1755,-0,9506981,0,1755,0,2819867,0,1755,-0,2175326
0,01401923,0,0,18225,-0,801648,0,18225,0,02819867,0,18225,-0,2819867,0,01401923,0,0,18225,-0,9305562,0,18225,0,27393,0,18225,-0,221561
0,01453846,0,0,189,-0,8056763,0,189,0,008056764,0,189,-0,2940719,0,01453846,0,0,189,-0,9063858,0,189,0,2699016,0,189,-0,2336462
0,01505769,0,0,19575,-0,801648,0,19575,-0,004028382,0,19575,-0,306157,0,01505769,0,0,19575,-0,8822156,0,19575,0,27393,0,19575,-0,2497597
0,01557692,0,0,2025,-0,8097047,0,2025,-0,01611353,0,2025,-0,3182422,0,01557692,0,0,2025,-0,866102,0,2025,0,27393,0,2025,-0,2658732
0,01609615,0,0,20925,-0,8177615,0,20925,-0,02417029,0,20925,-0,3182422,0,01609615,0,0,20925,-0,8540169,0,20925,0,2779583,0,20925,-0,2658732
0,01661539,0,0,216,-0,833875,0,216,-0,02417029,0,216,-0,3262989,0,01661539,0,0,216,-0,8580453,0,216,0,2900435,0,216,-0,2819867
0,01713462,0,0,22275,-0,8459601,0,22275,-0,02417029,0,22275,-0,3262989,0,01713462,0,0,22275,-0,8701304,0,22275,0,3021286,0,22275,-0,2819867
0,01765385,0,0,2295,-0,8580453,0,2295,-0,02417029,0,2295,-0,3303273,0,01765385,0,0,2295,-0,8862439,0,2295,0,3182422,0,2295,-0,2900435
0,01817308,0,0,23625,-0,8701304,0,23625,-0,008056764,0,23625,-0,3262989,0,01817308,0,0,23625,-0,9104142,0,23625,0,3383841,0,23625,-0,2900435
0,01869231,0,0,243,-0,8701304,0,243,0,01208515,0,243,-0,3182422,0,01869231,0,0,243,-0,9386129,0,243,0,3343557,0,243,-0,2900435
0,01921154,0,0,24975,-0,8741588,0,24975,0,03222705,0,24975,-0,306157,0,01921154,0,0,24975,-0,9627832,0,24975,0,3504692,0,24975,-0,2940719
0,01973077,0,0,2565,-0,8822156,0,2565,0,05236896,0,2565,-0,2981002,0,01973077,0,0,2565,-0,9869535,0,2565,0,3544976,0,2565,-0,2779583
0,02025,0,0,26325,-0,8781872,0,26325,0,07251087,0,26325,-0,2940719,0,02025,0,0,26325,-1,003067,0,26325,0,3544976,0,26325,-0,2699016
0,02076923,0,0,27,-0,8862439,0,27,0,08056764,0,27,-0,2940719,0,02076923,0,0,27,-1,015152,0,27,0,358526,0,27,-0,2537881
0,02128846,0,0,27675,-0,8822156,0,27675,0,08459602,0,27675,-0,2860151,0,02128846,0,0,27675,-1,015152,0,27675,0,3665827,0,27675,-0,2336462
0,02180769,0,0,2835,-0,8822156,0,2835,0,08459602,0,2835,-0,2900435,0,02180769,0,0,2835,-0,9990387,0,2835,0,3625543,0,2835,-0,2255894
0,02232692,0,0,29025,-0,866102,0,29025,0,08459602,0,29025,-0,2981002,0,02232692,0,0,29025,-0,9788967,0,29025,0,3504692,0,29025,-0,2135042
0,02284615,0,0,297,-0,8620737,0,297,0,07251087,0,297,-0,3021286,0,02284615,0,0,297,-0,9547265,0,297,0,3464408,0,297,-0,2094758
0,02336538,0,0,30375,-0,8499885,0,30375,0,06042573,0,30375,-0,3021286,0,02336538,0,0,30375,-0,9224994,0,30375,0,3343557,0,30375,-0,2094758
0,02388461,0,0,3105,-0,8459601,0,3105,0,04028382,0,3105,-0,3021286,0,02388461,0,0,3105,-0,9023575,0,3105,0,3182422,0,3105,-0,2175326
0,02440385,0,0,31725,-0,8499885,0,31725,0,03222705,0,31725,-0,2981002,0,02440385,0,0,31725,-0,9063858,0,31725,0,3142138,0,31725,-0,2336462
0,02492308,0,0,324,-0,8620737,0,324,0,02819867,0,324,-0,2981002,0,02492308,0,0,324,-0,9224994,0,324,0,2981002,0,324,-0,2497597
0,02544231,0,0,33075,-0,8741588,0,33075,0,02417029,0,33075,-0,2940719,0,02544231,0,0,33075,-0,9345846,0,33075,0,2981002,0,33075,-0,2658732
0,02596154,0,0,3375,-0,8902723,0,3375,0,02819867,0,3375,-0,2981002,0,02596154,0,0,3375,-0,9668117,0,3375,0,2940719,0,3375,-0,2819867
0,02648077,0,0,34425,-0,8983291,0,34425,0,03222705,0,34425,-0,3021286,0,02648077,0,0,34425,-0,9950103,0,34425,0,2981002,0,34425,-0,2860151
0,027,0,0,351,-0,8943007,0,351,0,03625543,0,351,-0,3101854,0,027,0,0,351,-1,015152,0,351,0,2981002,0,351,-0,2940719
0,02751923,0,0,35775,-0,8822156,0,35775,0,03625543,0,35775,-0,3101854,0,02751923,0,0,35775,-1,031266,0,35775,0,2981002,0,35775,-0,2900435
0,02803846,0,0,3645,-0,8580453,0,3645,0,03222705,0,3645,-0,3182422,0,02803846,0,0,3645,-1,027237,0,3645,0,2900435,0,3645,-0,2940719
0,02855769,0,0,37125,-0,8459601,0,37125,0,02417029,0,37125,-0,3303273,0,02855769,0,0,37125,-1,007095,0,37125,0,2819867,0,37125,-0,2819867
0,02907692,0,0,378,-0,833875,0,378,0,01208515,0,378,-0,3303273,0,02907692,0,0,378,-0,9829252,0,378,0,2779583,0,378,-0,2819867
0,02959615,0,0,38475,-0,8258182,0,38475,0,004028382,0,38475,-0,3383841,0,02959615,0,0,38475,-0,9506981,0,38475,0,2779583,0,38475,-0,2699016
0,03011538,0,0,3915,-0,8258182,0,3915,-0,01208515,0,3915,-0,3343557,0,03011538,0,0,3915,-0,9265279,0,3915,0,2618448,0,3915,-0,2699016
0,03063462,0,0,39825,-0,8298466,0,39825,-0,01611353,0,39825,-0,3303273,0,03063462,0,0,39825,-0,9063858,0,39825,0,2699016,0,39825,-0,2618448
0,03115385,0,0,405,-0,8459601,0,405,-0,01611353,0,405,-0,3303273,0,03115385,0,0,405,-0,8902723,0,405,0,2658732,0,405,-0,2618448
0,03167308,0,0,41175,-0,8540169,0,41175,-0,01208515,0,41175,-0,3222705,0,03167308,0,0,41175,-0,8943007,0,41175,0,27393,0,41175,-0,2658732
0,03219231,0,0,4185,-0,866102,0,4185,-0,004028382,0,4185,-0,3142138,0,03219231,0,0,4185,-0,9023575,0,4185,0,2860151,0,4185,-0,2618448
0,03271154,0,0,42525,-0,8741588,0,42525,0,004028382,0,42525,-0,3021286,0,03271154,0,0,42525,-0,9224994,0,42525,0,2981002,0,42525,-0,2618448
0,03323077,0,0,432,-0,8822156,0,432,0,01611353,0,432,-0,2981002,0,03323077,0,0,432,-0,9506981,0,432,0,3182422,0,432,-0,2578164
0,03375,0,0,43875,-0,8862439,0,43875,0,03625543,0,43875,-0,2940719,0,03375,0,0,43875,-0,97084,0,43875,0,3262989,0,43875,-0,2537881
0,03426923,0,0,4455,-0,8781872,0,4455,0,04834058,0,4455,-0,2981002,0,03426923,0,0,4455,-0,9909819,0,4455,0,3383841,0,4455,-0,2618448
0,03478846,0,0,45225,-0,8741588,0,45225,0,06445411,0,45225,-0,2940719,0,03478846,0,0,45225,-1,003067,0,45225,0,3504692,0,45225,-0,2497597
0,03530769,0,0,459,-0,8741588,0,459,0,07251087,0,459,-0,2940719,0,03530769,0,0,459,-1,011124,0,459,0,3504692,0,459,-0,2578164
0,03582693,0,0,46575,-0,8701304,0,46575,0,07653925,0,46575,-0,306157,0,03582693,0,0,46575,-0,9990387,0,46575,0,3544976,0,46575,-0,2537881
0,03634615,0,0,4725,-0,8580453,0,4725,0,07653925,0,4725,-0,3142138,0,03634615,0,0,4725,-0,9748684,0,4725,0,3504692,0,4725,-0,2537881
0,03686538,0,0,47925,-0,8459601,0,47925,0,07251087,0,47925,-0,3142138,0,03686538,0,0,47925,-0,9506981,0,47925,0,3504692,0,47925,-0,2497597
0,03738461,0,0,486,-0,8298466,0,486,0,06445411,0,486,-0,3182422,0,03738461,0,0,486,-0,9144427,0,486,0,3303273,0,486,-0,2497597
0,03790385,0,0,49275,-0,8177615,0,49275,0,05639734,0,49275,-0,3101854,0,03790385,0,0,49275,-0,8943007,0,49275,0,3262989,0,49275,-0,2457313
0,03842308,0,0,4995,-0,8097047,0,4995,0,05236896,0,4995,-0,306157,0,03842308,0,0,4995,-0,8822156,0,4995,0,3101854,0,4995,-0,2497597
0,03894231,0,0,50625,-0,8217899,0,50625,0,0443122,0,50625,-0,2940719,0,03894231,0,0,50625,-0,8741588,0,50625,0,2981002,0,50625,-0,2537881
0,03946154,0,0,513,-0,833875,0,513,0,0443122,0,513,-0,2940719,0,03946154,0,0,513,-0,8902723,0,513,0,2981002,0,513,-0,2537881
0,03998077,0,0,51975,-0,8459601,0,51975,0,0443122,0,51975,-0,2860151,0,03998077,0,0,51975,-0,9023575,0,51975,0,2981002,0,51975,-0,2497597
0,0405,0,0,5265,-0,8701304,0,5265,0,0443122,0,5265,-0,2819867,0,0405,0,0,5265,-0,9345846,0,5265,0,306157,0,5265,-0,2417029
0,04101923,0,0,53325,-0,8902723,0,53325,0,05236896,0,53325,-0,27393,0,04101923,0,0,53325,-0,97084,0,53325,0,3182422,0,53325,-0,2336462
0,04153846,0,0,54,-0,9104142,0,54,0,06042573,0,54,-0,27393,0,04153846,0,0,54,-1,007095,0,54,0,3182422,0,54,-0,2255894
0,04205769,0,0,54675,-0,9265279,0,54675,0,06445411,0,54675,-0,27393,0,04205769,0,0,54675,-1,035294,0,54675,0,3182422,0,54675,-0,2175326
0,04257692,0,0,5535,-0,9265279,0,5535,0,07251087,0,5535,-0,2819867,0,04257692,0,0,5535,-1,075578,0,5535,0,3182422,0,5535,-0,2135042
0,04309615,0,0,56025,-0,9184711,0,56025,0,08056764,0,56025,-0,2779583,0,04309615,0,0,56025,-1,083635,0,56025,0,3101854,0,56025,-0,2054475
0,04361539,0,0,567,-0,8983291,0,567,0,07653925,0,567,-0,2860151,0,04361539,0,0,567,-1,087663,0,567,0,2981002,0,567,-0,2054475
0,04413462,0,0,57375,-0,8822156,0,57375,0,07251087,0,57375,-0,2981002,0,04413462,0,0,57375,-1,059464,0,57375,0,2819867,0,57375,-0,2175326
0,04465385,0,0,5805,-0,8701304,0,5805,0,05639734,0,5805,-0,3101854,0,04465385,0,0,5805,-1,027237,0,5805,0,2658732,0,5805,-0,221561
0,04517308,0,0,58725,-0,8620737,0,58725,0,0443122,0,58725,-0,3142138,0,04517308,0,0,58725,-0,9829252,0,58725,0,2457313,0,58725,-0,2336462
0,04569231,0,0,594,-0,8540169,0,594,0,03222705,0,594,-0,3262989,0,04569231,0,0,594,-0,9547265,0,594,0,2417029,0,594,-0,2497597
0,04621154,0,0,60075,-0,8540169,0,60075,0,01611353,0,60075,-0,3262989,0,04621154,0,0,60075,-0,9104142,0,60075,0,2457313,0,60075,-0,2578164
0,04673077,0,0,6075,-0,8499885,0,6075,0,008056764,0,6075,-0,3303273,0,04673077,0,0,6075,-0,8862439,0,6075,0,2457313,0,6075,-0,27393
0,04725,0,0,61425,-0,8459601,0,61425,0,0,61425,-0,3303273,0,04725,0,0,61425,-0,8741588,0,61425,0,2537881,0,61425,-0,2860151
0,04776923,0,0,621,-0,8499885,0,621,-0,004028382,0,621,-0,3303273,0,04776923,0,0,621,-0,8741588,0,621,0,2699016,0,621,-0,2900435
0,04828846,0,0,62775,-0,8459601,0,62775,-0,004028382,0,62775,-0,3222705,0,04828846,0,0,62775,-0,8781872,0,62775,0,2860151,0,62775,-0,3021286
0,04880769,0,0,6345,-0,8379034,0,6345,0,0,6345,-0,3101854,0,04880769,0,0,6345,-0,9023575,0,6345,0,3021286,0,6345,-0,3142138
0,04932692,0,0,64125,-0,8379034,0,64125,0,01208515,0,64125,-0,3101854,0,04932692,0,0,64125,-0,9305562,0,64125,0,3262989,0,64125,-0,3101854
0,04984615,0,0,648,-0,8379034,0,648,0,01611353,0,648,-0,3021286,0,04984615,0,0,648,-0,9547265,0,648,0,3424124,0,648,-0,2981002
0,05036538,0,0,65475,-0,8419318,0,65475,0,02819867,0,65475,-0,3021286,0,05036538,0,0,65475,-0,9748684,0,65475,0,3625543,0,65475,-0,2860151
0,05088462,0,0,6615,-0,8540169,0,6615,0,03625543,0,6615,-0,3021286,0,05088462,0,0,6615,-0,9909819,0,6615,0,3625543,0,6615,-0,27393
0,05140385,0,0,66825,-0,8580453,0,66825,0,0443122,0,66825,-0,306157,0,05140385,0,0,66825,-0,9950103,0,66825,0,3665827,0,66825,-0,2537881
0,05192308,0,0,675,-0,866102,0,675,0,05236896,0,675,-0,3101854,0,05192308,0,0,675,-0,9909819,0,675,0,3625543,0,675,-0,2457313
0,05244231,0,0,68175,-0,866102,0,68175,0,06445411,0,68175,-0,3142138,0,05244231,0,0,68175,-0,9748684,0,68175,0,3424124,0,68175,-0,2255894
0,05296154,0,0,6885,-0,8620737,0,6885,0,07251087,0,6885,-0,3182422,0,05296154,0,0,6885,-0,9547265,0,6885,0,3303273,0,6885,-0,2175326
0,05348077,0,0,69525,-0,8540169,0,69525,0,07653925,0,69525,-0,3182422,0,05348077,0,0,69525,-0,9345846,0,69525,0,3182422,0,69525,-0,2175326
0,054,9,231708E-06,0,702,-0,8459601,0,702,0,07653925,0,702,-0,3101854,0,054,7,385367E-06,0,702,-0,9144427,0,702,0,306157,0,702,-0,221561
0,05451923,8,224613E-06,0,70875,-0,8298466,0,70875,0,07653925,0,70875,-0,2981002,0,05451923,7,721065E-06,0,70875,-0,8983291,0,70875,0,3021286,0,70875,-0,2336462
0,05503846,8,89601E-06,0,7155,-0,8258182,0,7155,0,07251087,0,7155,-0,2900435,0,05503846,9,231708E-06,0,7155,-0,8902723,0,7155,0,2981002,0,7155,-0,2457313
0,05555769,9,903106E-06,0,72225,-0,8137331,0,72225,0,06445411,0,72225,-0,2900435,0,05555769,9,399557E-06,0,72225,-0,8862439,0,72225,0,2940719,0,72225,-0,2578164
0,05607693,1,02388E-05,0,729,-0,8137331,0,729,0,05236896,0,729,-0,2819867,0,05607693,9,567407E-06,0,729,-0,8943007,0,729,0,2940719,0,729,-0,2658732
0,05659616,9,063859E-06,0,73575,-0,8298466,0,73575,0,0443122,0,73575,-0,2819867,0,05659616,1,007095E-05,0,73575,-0,9063858,0,73575,0,306157,0,73575,-0,2658732
0,05711538,7,385367E-06,0,7425,-0,8499885,0,7425,0,04028382,0,7425,-0,2819867,0,05711538,8,560311E-06,0,7425,-0,9345846,0,7425,0,3182422,0,7425,-0,2699016
0,05763461,7,217517E-06,0,74925,-0,866102,0,74925,0,03222705,0,74925,-0,2819867,0,05763461,9,231708E-06,0,74925,-0,9587549,0,74925,0,3303273,0,74925,-0,2618448
0,05815385,8,89601E-06,0,756,-0,8781872,0,756,0,02417029,0,756,-0,2819867,0,05815385,1,09102E-05,0,756,-0,9829252,0,756,0,3383841,0,756,-0,2578164
0,05867308,1,225299E-05,0,76275,-0,8862439,0,76275,0,01208515,0,76275,-0,2819867,0,05867308,1,19173E-05,0,76275,-1,003067,0,76275,0,3424124,0,76275,-0,2417029
0,05919231,1,359579E-05,0,7695,-0,8983291,0,7695,0,008056764,0,7695,-0,2900435,0,05919231,1,19173E-05,0,7695,-1,015152,0,7695,0,3383841,0,7695,-0,2457313
0,05971154,1,359579E-05,0,77625,-0,8983291,0,77625,0,01208515,0,77625,-0,2940719,0,05971154,1,09102E-05,0,77625,-1,015152,0,77625,0,3383841,0,77625,-0,2417029
0,06023077,1,393149E-05,0,783,-0,8943007,0,783,0,008056764,0,783,-0,2981002,0,06023077,1,007095E-05,0,783,-1,015152,0,783,0,3303273,0,783,-0,2336462
0,06075,1,409934E-05,0,78975,-0,8902723,0,78975,0,02014191,0,78975,-0,306157,0,06075,1,12459E-05,0,78975,-1,003067,0,78975,0,3182422,0,78975,-0,2336462
0,06126923,1,460288E-05,0,7965,-0,8862439,0,7965,0,02417029,0,7965,-0,2981002,0,06126923,9,231708E-06,0,7965,-0,9950103,0,7965,0,3142138,0,7965,-0,2417029
0,06178846,1,527428E-05,0,80325,-0,8822156,0,80325,0,03625543,0,80325,-0,2981002,0,06178846,7,049668E-06,0,80325,-0,9869535,0,80325,0,2981002,0,80325,-0,2376745
0,06230769,1,393149E-05,0,81,-0,8781872,0,81,0,03222705,0,81,-0,2940719,0,06230769,8,560311E-06,0,81,-0,9627832,0,81,0,2860151,0,81,-0,2497597
0,06282692,1,174945E-05,0,81675,-0,8620737,0,81675,0,04028382,0,81675,-0,2981002,0,06282692,1,040665E-05,0,81675,-0,9466697,0,81675,0,2658732,0,81675,-0,2497597
0,06334615,1,12459E-05,0,8235,-0,8540169,0,8235,0,04028382,0,8235,-0,3021286,0,06334615,8,224613E-06,0,8235,-0,9386129,0,8235,0,2658732,0,8235,-0,2658732
0,06386539,1,174945E-05,0,83025,-0,8419318,0,83025,0,04028382,0,83025,-0,306157,0,06386539,4,531929E-06,0,83025,-0,9265279,0,83025,0,2618448,0,83025,-0,2618448
0,06438462,1,208515E-05,0,837,-0,8419318,0,837,0,0443122,0,837,-0,3182422,0,06438462,2,517739E-06,0,837,-0,9224994,0,837,0,2578164,0,837,-0,2618448
0,06490385,1,258869E-05,0,84375,-0,8419318,0,84375,0,0443122,0,84375,-0,3182422,0,06490385,3,860533E-06,0,84375,-0,9144427,0,84375,0,2658732,0,84375,-0,2658732
0,06542308,1,258869E-05,0,8505,-0,8459601,0,8505,0,04834058,0,8505,-0,3101854,0,06542308,7,385367E-06,0,8505,-0,9224994,0,8505,0,2819867,0,8505,-0,2699016
0,06594231,1,393149E-05,0,85725,-0,8540169,0,85725,0,04028382,0,85725,-0,3142138,0,06594231,8,392462E-06,0,85725,-0,9265279,0,85725,0,3021286,0,85725,-0,2699016
0,06646154,1,225299E-05,0,864,-0,8540169,0,864,0,0443122,0,864,-0,3101854,0,06646154,9,231708E-06,0,864,-0,9426414,0,864,0,3182422,0,864,-0,2699016
0,06698077,9,231708E-06,0,87075,-0,8580453,0,87075,0,04028382,0,87075,-0,306157,0,06698077,1,02388E-05,0,87075,-0,9506981,0,87075,0,3383841,0,87075,-0,2578164
0,0675,1,040665E-05,0,8775,-0,8620737,0,8775,0,04834058,0,8775,-0,3021286,0,0675,1,05745E-05,0,8775,-0,9668117,0,8775,0,3464408,0,8775,-0,2497597
0,06801923,1,05745E-05,0,88425,-0,8580453,0,88425,0,05236896,0,88425,-0,2900435,0,06801923,1,12459E-05,0,88425,-0,9748684,0,88425,0,3424124,0,88425,-0,2376745
0,06853846,1,02388E-05,0,891,-0,8620737,0,891,0,05639734,0,891,-0,2779583,0,06853846,1,208515E-05,0,891,-0,9788967,0,891,0,3544976,0,891,-0,2336462
0,0690577,1,15816E-05,0,89775,-0,8620737,0,89775,0,06042573,0,89775,-0,2699016,0,0690577,1,02388E-05,0,89775,-0,9869535,0,89775,0,3504692,0,89775,-0,221561
0,06957693,1,258869E-05,0,9045,-0,8620737,0,9045,0,06445411,0,9045,-0,2699016,0,06957693,8,560311E-06,0,9045,-0,9869535,0,9045,0,3383841,0,9045,-0,221561
0,07009616,1,258869E-05,0,91125,-0,8701304,0,91125,0,06445411,0,91125,-0,27393,0,07009616,6,71397E-06,0,91125,-0,9829252,0,91125,0,3303273,0,91125,-0,2094758
0,07061539,1,292439E-05,0,918,-0,866102,0,918,0,06445411,0,918,-0,2819867,0,07061539,4,867628E-06,0,918,-0,97084,0,918,0,3222705,0,918,-0,2094758
0,07113462,1,141375E-05,0,92475,-0,8701304,0,92475,0,06848249,0,92475,-0,2819867,0,07113462,7,049668E-06,0,92475,-0,9627832,0,92475,0,3021286,0,92475,-0,2054475
0,07165385,8,89601E-06,0,9315,-0,8701304,0,9315,0,07251087,0,9315,-0,2860151,0,07165385,8,560311E-06,0,9315,-0,9506981,0,9315,0,2860151,0,9315,-0,2135042
0,07217308,7,721065E-06,0,93825,-0,8701304,0,93825,0,06848249,0,93825,-0,2860151,0,07217308,7,888914E-06,0,93825,-0,9426414,0,93825,0,2779583,0,93825,-0,2094758
0,0726923,8,89601E-06,0,945,-0,8620737,0,945,0,06445411,0,945,-0,2900435,0,0726923,7,888914E-06,0,945,-0,9345846,0,945,0,2658732,0,945,-0,221561
0,07321154,1,040665E-05,0,95175,-0,8580453,0,95175,0,05236896,0,95175,-0,2900435,0,07321154,1,02388E-05,0,95175,-0,9305562,0,95175,0,2618448,0,95175,-0,2296178
0,07373077,1,05745E-05,0,9585,-0,8580453,0,9585,0,05236896,0,9585,-0,2981002,0,07373077,1,107805E-05,0,9585,-0,9265279,0,9585,0,2658732,0,9585,-0,2457313
0,07425,1,05745E-05,0,96525,-0,8580453,0,96525,0,04834058,0,96525,-0,3021286,0,07425,1,05745E-05,0,96525,-0,9386129,0,96525,0,2699016,0,96525,-0,2618448
0,07476923,1,15816E-05,0,972,-0,8580453,0,972,0,03222705,0,972,-0,3101854,0,07476923,9,567407E-06,0,972,-0,9466697,0,972,0,2779583,0,972,-0,2658732
0,07528846,1,326009E-05,0,97875,-0,8540169,0,97875,0,02819867,0,97875,-0,3021286,0,07528846,9,567407E-06,0,97875,-0,9547265,0,97875,0,2940719,0,97875,-0,27393
0,07580769,1,393149E-05,0,9855,-0,8540169,0,9855,0,02014191,0,9855,-0,3101854,0,07580769,9,231708E-06,0,9855,-0,9627832,0,9855,0,306157,0,9855,-0,27393
0,07632692,1,359579E-05,0,99225,-0,8580453,0,99225,0,02014191,0,99225,-0,3142138,0,07632692,9,903106E-06,0,99225,-0,9748684,0,99225,0,3222705,0,99225,-0,2699016
0,07684615,1,258869E-05,0,999,-0,8540169,0,999,0,02014191,0,999,-0,3101854,0,07684615,8,728161E-06,0,999,-0,9788967,0,999,0,3222705,0,999,-0,2658732
0,07736538,1,12459E-05,1,00575,-0,8620737,1,00575,0,02417029,1,00575,-0,306157,0,07736538,7,217517E-06,1,00575,-0,9748684,1,00575,0,3343557,1,00575,-0,2537881
0,07788461,1,15816E-05,1,0125,-0,866102,1,0125,0,02819867,1,0125,-0,306157,0,07788461,8,89601E-06,1,0125,-0,9748684,1,0125,0,3222705,1,0125,-0,2497597
0,07840385,1,141375E-05,1,01925,-0,8701304,1,01925,0,03222705,1,01925,-0,2940719,0,07840385,1,12459E-05,1,01925,-0,9668117,1,01925,0,3222705,1,01925,-0,2376745
0,07892308,1,05745E-05,1,026,-0,8701304,1,026,0,03625543,1,026,-0,2940719,0,07892308,1,12459E-05,1,026,-0,97084,1,026,0,306157,1,026,-0,2457313
0,07944231,9,567407E-06,1,03275,-0,8781872,1,03275,0,0443122,1,03275,-0,2900435,0,07944231,9,903106E-06,1,03275,-0,9668117,1,03275,0,306157,1,03275,-0,2336462
0,07996154,7,721065E-06,1,0395,-0,8822156,1,0395,0,04834058,1,0395,-0,2819867,0,07996154,8,89601E-06,1,0395,-0,9668117,1,0395,0,3101854,1,0395,-0,2376745
0,08048077,6,881819E-06,1,04625,-0,8862439,1,04625,0,05639734,1,04625,-0,2819867,0,08048077,9,903106E-06,1,04625,-0,9627832,1,04625,0,3101854,1,04625,-0,2336462
0,081,7,721065E-06,1,053,-0,8781872,1,053,0,05639734,1,053,-0,2940719,0,081,9,567407E-06,1,053,-0,9547265,1,053,0,3182422,1,053,-0,2376745
0,08151923,7,385367E-06,1,05975,-0,8701304,1,05975,0,06848249,1,05975,-0,3021286,0,08151923,8,056764E-06,1,05975,-0,9587549,1,05975,0,3222705,1,05975,-0,2457313
0,08203846,7,553216E-06,1,0665,-0,8620737,1,0665,0,06848249,1,0665,-0,306157,0,08203846,6,042573E-06,1,0665,-0,9627832,1,0665,0,3222705,1,0665,-0,2497597
0,08255769,9,231708E-06,1,07325,-0,8580453,1,07325,0,06848249,1,07325,-0,3021286,0,08255769,4,531929E-06,1,07325,-0,9547265,1,07325,0,3262989,1,07325,-0,2457313
0,08307692,1,19173E-05,1,08,-0,8419318,1,08,0,06042573,1,08,-0,3021286,0,08307692,5,874724E-06,1,08,-0,9466697,1,08,0,3262989,1,08,-0,2578164
0,08359616,1,510643E-05,1,08675,-0,833875,1,08675,0,06042573,1,08675,-0,2900435,0,08359616,5,035477E-06,1,08675,-0,9345846,1,08675,0,3303273,1,08675,-0,2578164
0,08411539,1,644923E-05,1,0935,-0,8217899,1,0935,0,04834058,1,0935,-0,2819867,0,08411539,3,356985E-06,1,0935,-0,9265279,1,0935,0,3222705,1,0935,-0,2618448
0,08463462,1,527428E-05,1,10025,-0,8217899,1,10025,0,02819867,1,10025,-0,2819867,0,08463462,4,196231E-06,1,10025,-0,9224994,1,10025,0,3182422,1,10025,-0,2618448
0,08515385,1,326009E-05,1,107,-0,8217899,1,107,0,02014191,1,107,-0,2819867,0,08515385,3,524834E-06,1,107,-0,9184711,1,107,0,3182422,1,107,-0,2578164
0,08567308,1,225299E-05,1,11375,-0,8298466,1,11375,0,02014191,1,11375,-0,2860151,0,08567308,3,860533E-06,1,11375,-0,9224994,1,11375,0,3182422,1,11375,-0,2578164
0,08619231,1,258869E-05,1,1205,-0,8459601,1,1205,0,01611353,1,1205,-0,2981002,0,08619231,5,706875E-06,1,1205,-0,9305562,1,1205,0,3182422,1,1205,-0,2497597
0,08671154,1,376364E-05,1,12725,-0,8580453,1,12725,0,01611353,1,12725,-0,3021286,0,08671154,7,385367E-06,1,12725,-0,9426414,1,12725,0,3182422,1,12725,-0,2417029
0,08723077,1,326009E-05,1,134,-0,8701304,1,134,0,01611353,1,134,-0,3101854,0,08723077,9,231708E-06,1,134,-0,9506981,1,134,0,3182422,1,134,-0,2336462
0,08775,1,258869E-05,1,14075,-0,8781872,1,14075,0,02014191,1,14075,-0,306157,0,08775,1,007095E-05,1,14075,-0,9668117,1,14075,0,3142138,1,14075,-0,2376745
0,08826923,1,258869E-05,1,1475,-0,8822156,1,1475,0,02417029,1,1475,-0,306157,0,08826923,1,05745E-05,1,1475,-0,9748684,1,1475,0,3182422,1,1475,-0,2417029
0,08878846,1,02388E-05,1,15425,-0,8902723,1,15425,0,03222705,1,15425,-0,2981002,0,08878846,1,141375E-05,1,15425,-0,9869535,1,15425,0,3101854,1,15425,-0,2417029
0,0893077,8,224613E-06,1,161,-0,8822156,1,161,0,0443122,1,161,-0,2940719,0,0893077,1,05745E-05,1,161,-0,9829252,1,161,0,3101854,1,161,-0,2457313
0,08982693,7,888914E-06,1,16775,-0,8822156,1,16775,0,0443122,1,16775,-0,2819867,0,08982693,1,09102E-05,1,16775,-0,9829252,1,16775,0,2940719,1,16775,-0,2457313
0,09034616,7,217517E-06,1,1745,-0,8741588,1,1745,0,04834058,1,1745,-0,2819867,0,09034616,1,258869E-05,1,1745,-0,9748684,1,1745,0,2981002,1,1745,-0,2457313
0,09086539,6,378271E-06,1,18125,-0,8620737,1,18125,0,05236896,1,18125,-0,2779583,0,09086539,1,208515E-05,1,18125,-0,97084,1,18125,0,2900435,1,18125,-0,2417029
0,09138462,7,553216E-06,1,188,-0,8580453,1,188,0,05639734,1,188,-0,2860151,0,09138462,1,040665E-05,1,188,-0,9587549,1,188,0,2860151,1,188,-0,2336462
0,09190385,7,385367E-06,1,19475,-0,8540169,1,19475,0,05236896,1,19475,-0,2819867,0,09190385,1,292439E-05,1,19475,-0,9506981,1,19475,0,2779583,1,19475,-0,2255894
0,09242308,6,210422E-06,1,2015,-0,8499885,1,2015,0,04834058,1,2015,-0,2900435,0,09242308,1,393149E-05,1,2015,-0,9426414,1,2015,0,2860151,1,2015,-0,2336462
0,09294231,6,881819E-06,1,20825,-0,8379034,1,20825,0,04834058,1,20825,-0,2940719,0,09294231,9,735257E-06,1,20825,-0,9386129,1,20825,0,2860151,1,20825,-0,2296178
0,09346154,1,05745E-05,1,215,-0,8419318,1,215,0,0443122,1,215,-0,2981002,0,09346154,7,217517E-06,1,215,-0,9345846,1,215,0,2940719,1,215,-0,2296178
0,09398077,1,19173E-05,1,22175,-0,8459601,1,22175,0,04028382,1,22175,-0,306157,0,09398077,8,224613E-06,1,22175,-0,9345846,1,22175,0,3021286,1,22175,-0,2376745
0,0945,9,903106E-06,1,2285,-0,8459601,1,2285,0,03222705,1,2285,-0,3021286,0,0945,1,12459E-05,1,2285,-0,9345846,1,2285,0,3182422,1,2285,-0,2417029
0,09501923,9,231708E-06,1,23525,-0,8540169,1,23525,0,03222705,1,23525,-0,3021286,0,09501923,1,242084E-05,1,23525,-0,9466697,1,23525,0,3142138,1,23525,-0,2497597
0,09553846,1,040665E-05,1,242,-0,8620737,1,242,0,03222705,1,242,-0,2940719,0,09553846,9,567407E-06,1,242,-0,9466697,1,242,0,3262989,1,242,-0,2497597
0,09605769,1,05745E-05,1,24875,-0,8701304,1,24875,0,02819867,1,24875,-0,2981002,0,09605769,9,231708E-06,1,24875,-0,9547265,1,24875,0,3343557,1,24875,-0,2578164
0,09657692,1,107805E-05,1,2555,-0,8701304,1,2555,0,03222705,1,2555,-0,2900435,0,09657692,1,208515E-05,1,2555,-0,9587549,1,2555,0,3303273,1,2555,-0,2658732
0,09709615,1,393149E-05,1,26225,-0,8620737,1,26225,0,03625543,1,26225,-0,2860151,0,09709615,1,326009E-05,1,26225,-0,9627832,1,26225,0,3303273,1,26225,-0,2578164
0,09761538,1,728847E-05,1,269,-0,8701304,1,269,0,03625543,1,269,-0,2940719,0,09761538,1,258869E-05,1,269,-0,9748684,1,269,0,3182422,1,269,-0,2578164
0,09813461,1,644923E-05,1,27575,-0,8620737,1,27575,0,04028382,1,27575,-0,2940719,0,09813461,1,258869E-05,1,27575,-0,97084,1,27575,0,3182422,1,27575,-0,2537881
0,09865385,1,527428E-05,1,2825,-0,866102,1,2825,0,0443122,1,2825,-0,3021286,0,09865385,1,225299E-05,1,2825,-0,9748684,1,2825,0,3101854,1,2825,-0,2537881
0,09917308,1,393149E-05,1,28925,-0,866102,1,28925,0,0443122,1,28925,-0,3021286,0,09917308,1,12459E-05,1,28925,-0,97084,1,28925,0,3101854,1,28925,-0,2417029
0,09969231,1,393149E-05,1,296,-0,8701304,1,296,0,0443122,1,296,-0,3101854,0,09969231,1,12459E-05,1,296,-0,9627832,1,296,0,306157,1,296,-0,2417029
0,1002115,1,594568E-05,1,30275,-0,866102,1,30275,0,05236896,1,30275,-0,3101854,0,1002115,1,19173E-05,1,30275,-0,9547265,1,30275,0,2981002,1,30275,-0,2417029
0,1007308,1,762417E-05,1,3095,-0,8580453,1,3095,0,0443122,1,3095,-0,306157,0,1007308,1,225299E-05,1,3095,-0,9506981,1,3095,0,2981002,1,3095,-0,2417029
0,10125,1,779202E-05,1,31625,-0,8620737,1,31625,0,04834058,1,31625,-0,2981002,0,10125,1,12459E-05,1,31625,-0,9386129,1,31625,0,2940719,1,31625,-0,2417029
0,1017692,1,560998E-05,1,323,-0,8580453,1,323,0,04834058,1,323,-0,2940719,0,1017692,8,224613E-06,1,323,-0,9386129,1,323,0,2940719,1,323,-0,2417029
0,1022885,1,326009E-05,1,32975,-0,8580453,1,32975,0,05236896,1,32975,-0,2900435,0,1022885,6,54612E-06,1,32975,-0,9426414,1,32975,0,2981002,1,32975,-0,2376745
0,1028077,1,326009E-05,1,3365,-0,8580453,1,3365,0,04834058,1,3365,-0,2900435,0,1028077,7,049668E-06,1,3365,-0,9466697,1,3365,0,2981002,1,3365,-0,2376745
0,1033269,1,409934E-05,1,34325,-0,8580453,1,34325,0,04028382,1,34325,-0,2860151,0,1033269,7,553216E-06,1,34325,-0,9506981,1,34325,0,2981002,1,34325,-0,2457313
0,1038462,1,225299E-05,1,35,-0,8580453,1,35,0,0443122,1,35,-0,2981002,0,1038462,7,553216E-06,1,35,-0,9587549,1,35,0,3021286,1,35,-0,2497597
0,1043654,9,231708E-06,1,35675,-0,8580453,1,35675,0,04028382,1,35675,-0,3101854,0,1043654,8,560311E-06,1,35675,-0,9668117,1,35675,0,3021286,1,35675,-0,2417029
0,1048846,8,89601E-06,1,3635,-0,8580453,1,3635,0,03625543,1,3635,-0,3101854,0,1048846,9,231708E-06,1,3635,-0,9668117,1,3635,0,3021286,1,3635,-0,2497597
0,1054038,9,567407E-06,1,37025,-0,8580453,1,37025,0,03222705,1,37025,-0,3101854,0,1054038,9,063859E-06,1,37025,-0,9627832,1,37025,0,306157,1,37025,-0,2457313
0,1059231,1,09102E-05,1,377,-0,8620737,1,377,0,03625543,1,377,-0,3101854,0,1059231,7,217517E-06,1,377,-0,9587549,1,377,0,3021286,1,377,-0,2537881
0,1064423,1,19173E-05,1,38375,-0,8620737,1,38375,0,03625543,1,38375,-0,3101854,0,1064423,6,54612E-06,1,38375,-0,9587549,1,38375,0,3021286,1,38375,-0,2578164
0,1069615,1,05745E-05,1,3905,-0,8580453,1,3905,0,04028382,1,3905,-0,3101854,0,1069615,6,881819E-06,1,3905,-0,9506981,1,3905,0,2981002,1,3905,-0,2537881
0,1074808,9,735257E-06,1,39725,-0,8620737,1,39725,0,04028382,1,39725,-0,2981002,0,1074808,9,063859E-06,1,39725,-0,9426414,1,39725,0,306157,1,39725,-0,2578164
0,108,1,02388E-05,1,404,-0,8620737,1,404,0,04028382,1,404,-0,306157,0,108,8,560311E-06,1,404,-0,9466697,1,404,0,3021286,1,404,-0,2497597
0,1085192,9,567407E-06,1,41075,-0,8620737,1,41075,0,03625543,1,41075,-0,2940719,0,1085192,6,54612E-06,1,41075,-0,9506981,1,41075,0,306157,1,41075,-0,2417029
0,1090385,8,89601E-06,1,4175,-0,8620737,1,4175,0,04834058,1,4175,-0,2860151,0,1090385,6,042573E-06,1,4175,-0,9506981,1,4175,0,3021286,1,4175,-0,2457313
0,1095577,9,399557E-06,1,42425,-0,8540169,1,42425,0,0443122,1,42425,-0,2900435,0,1095577,7,217517E-06,1,42425,-0,9547265,1,42425,0,3142138,1,42425,-0,2457313
0,1100769,9,231708E-06,1,431,-0,8620737,1,431,0,0443122,1,431,-0,2860151,0,1100769,7,721065E-06,1,431,-0,9587549,1,431,0,3142138,1,431,-0,2457313
0,1105962,1,02388E-05,1,43775,-0,8620737,1,43775,0,0443122,1,43775,-0,2819867,0,1105962,5,874724E-06,1,43775,-0,9627832,1,43775,0,3182422,1,43775,-0,2417029
0,1111154,1,15816E-05,1,4445,-0,866102,1,4445,0,04834058,1,4445,-0,2860151,0,1111154,4,36408E-06,1,4445,-0,9627832,1,4445,0,3182422,1,4445,-0,2376745
0,1116346,1,225299E-05,1,45125,-0,8620737,1,45125,0,04834058,1,45125,-0,2860151,0,1116346,3,189135E-06,1,45125,-0,9668117,1,45125,0,3262989,1,45125,-0,2336462
0,1121539,1,292439E-05,1,458,-0,8580453,1,458,0,0443122,1,458,-0,2860151,0,1121539,3,189135E-06,1,458,-0,97084,1,458,0,3182422,1,458,-0,2376745
0,1126731,1,05745E-05,1,46475,-0,8620737,1,46475,0,0443122,1,46475,-0,2900435,0,1126731,4,531929E-06,1,46475,-0,97084,1,46475,0,3142138,1,46475,-0,2376745
0,1131923,7,721065E-06,1,4715,-0,866102,1,4715,0,0443122,1,4715,-0,2900435,0,1131923,6,210422E-06,1,4715,-0,9587549,1,4715,0,3142138,1,4715,-0,2336462
0,1137115,7,553216E-06,1,47825,-0,866102,1,47825,0,0443122,1,47825,-0,2940719,0,1137115,7,721065E-06,1,47825,-0,9587549,1,47825,0,3101854,1,47825,-0,2336462
0,1142308,9,231708E-06,1,485,-0,8620737,1,485,0,04028382,1,485,-0,2900435,0,1142308,8,728161E-06,1,485,-0,9547265,1,485,0,306157,1,485,-0,2457313
0,11475,1,12459E-05,1,49175,-0,8620737,1,49175,0,04028382,1,49175,-0,2981002,0,11475,7,217517E-06,1,49175,-0,9587549,1,49175,0,3101854,1,49175,-0,2336462
0,1152692,1,242084E-05,1,4985,-0,8620737,1,4985,0,03625543,1,4985,-0,2981002,0,1152692,3,860533E-06,1,4985,-0,9587549,1,4985,0,306157,1,4985,-0,2417029
0,1157885,1,02388E-05,1,50525,-0,8499885,1,50525,0,0443122,1,50525,-0,2981002,0,1157885,3,524834E-06,1,50525,-0,9466697,1,50525,0,306157,1,50525,-0,2457313
0,1163077,7,217517E-06,1,512,-0,8540169,1,512,0,04028382,1,512,-0,2981002,0,1163077,5,035477E-06,1,512,-0,9547265,1,512,0,2981002,1,512,-0,2497597
0,1168269,7,721065E-06,1,51875,-0,8580453,1,51875,0,03625543,1,51875,-0,2940719,0,1168269,6,210422E-06,1,51875,-0,9506981,1,51875,0,3021286,1,51875,-0,2457313
0,1173462,9,567407E-06,1,5255,-0,8580453,1,5255,0,04028382,1,5255,-0,2981002,0,1173462,3,356985E-06,1,5255,-0,9506981,1,5255,0,3021286,1,5255,-0,2578164
0,1178654,1,12459E-05,1,53225,-0,8580453,1,53225,0,0443122,1,53225,-0,2981002,0,1178654,5,035478E-07,1,53225,-0,9506981,1,53225,0,2981002,1,53225,-0,2618448
0,1183846,1,12459E-05,1,539,-0,8580453,1,539,0,03625543,1,539,-0,2940719,0,1183846,1,174945E-06,1,539,-0,9466697,1,539,0,306157,1,539,-0,2497597
0,1189038,9,231708E-06,1,54575,-0,8540169,1,54575,0,0443122,1,54575,-0,2981002,0,1189038,3,524834E-06,1,54575,-0,9506981,1,54575,0,306157,1,54575,-0,2457313
0,1194231,7,888914E-06,1,5525,-0,8620737,1,5525,0,04028382,1,5525,-0,2981002,0,1194231,4,531929E-06,1,5525,-0,9466697,1,5525,0,3101854,1,5525,-0,2457313
0,1199423,9,231708E-06,1,55925,-0,8580453,1,55925,0,04028382,1,55925,-0,2981002,0,1199423,3,524834E-06,1,55925,-0,9466697,1,55925,0,3142138,1,55925,-0,2376745
0,1204615,9,903106E-06,1,566,-0,8580453,1,566,0,0443122,1,566,-0,2940719,0,1204615,5,035477E-06,1,566,-0,9506981,1,566,0,3101854,1,566,-0,2376745
0,1209808,8,560311E-06,1,57275,-0,8540169,1,57275,0,04028382,1,57275,-0,2900435,0,1209808,8,224613E-06,1,57275,-0,9466697,1,57275,0,3101854,1,57275,-0,2336462
0,1215,7,888914E-06,1,5795,-0,8540169,1,5795,0,03222705,1,5795,-0,2900435,0,1215,1,09102E-05,1,5795,-0,9547265,1,5795,0,306157,1,5795,-0,2336462
0,1220192,7,217517E-06,1,58625,-0,8540169,1,58625,0,0443122,1,58625,-0,2819867,0,1220192,1,225299E-05,1,58625,-0,9547265,1,58625,0,306157,1,58625,-0,2417029
0,1225385,6,54612E-06,1,593,-0,866102,1,593,0,0443122,1,593,-0,2900435,0,1225385,1,258869E-05,1,593,-0,9627832,1,593,0,3021286,1,593,-0,2336462
0,1230577,5,874724E-06,1,59975,-0,8620737,1,59975,0,04834058,1,59975,-0,2940719,0,1230577,1,292439E-05,1,59975,-0,9627832,1,59975,0,3021286,1,59975,-0,2417029
0,1235769,5,706875E-06,1,6065,-0,8620737,1,6065,0,04834058,1,6065,-0,2981002,0,1235769,1,15816E-05,1,6065,-0,9627832,1,6065,0,3021286,1,6065,-0,2417029
0,1240962,8,560311E-06,1,61325,-0,866102,1,61325,0,05236896,1,61325,-0,3021286,0,1240962,9,903106E-06,1,61325,-0,9668117,1,61325,0,3021286,1,61325,-0,2497597
0,1246154,1,107805E-05,1,62,-0,866102,1,62,0,0443122,1,62,-0,306157,0,1246154,9,903106E-06,1,62,-0,9668117,1,62,0,3021286,1,62,-0,2497597
0,1251346,1,174945E-05,1,62675,-0,8620737,1,62675,0,0443122,1,62675,-0,306157,0,1251346,1,141375E-05,1,62675,-0,9668117,1,62675,0,306157,1,62675,-0,2497597
0,1256538,1,02388E-05,1,6335,-0,8580453,1,6335,0,0443122,1,6335,-0,306157,0,1256538,8,89601E-06,1,6335,-0,9587549,1,6335,0,3101854,1,6335,-0,2537881
0,1261731,7,888914E-06,1,64025,-0,8580453,1,64025,0,04028382,1,64025,-0,2981002,0,1261731,6,378271E-06,1,64025,-0,9506981,1,64025,0,3021286,1,64025,-0,2537881
0,1266923,7,888914E-06,1,647,-0,8499885,1,647,0,03625543,1,647,-0,2900435,0,1266923,9,567407E-06,1,647,-0,9345846,1,647,0,306157,1,647,-0,2537881
0,1272115,1,05745E-05,1,65375,-0,8580453,1,65375,0,04028382,1,65375,-0,2900435,0,1272115,1,242084E-05,1,65375,-0,9386129,1,65375,0,306157,1,65375,-0,2537881
0,1277308,1,326009E-05,1,6605,-0,8620737,1,6605,0,03625543,1,6605,-0,2900435,0,1277308,1,05745E-05,1,6605,-0,9386129,1,6605,0,3182422,1,6605,-0,2457313
0,12825,1,359579E-05,1,66725,-0,866102,1,66725,0,03625543,1,66725,-0,2900435,0,12825,7,217517E-06,1,66725,-0,9466697,1,66725,0,3222705,1,66725,-0,2457313
0,1287692,1,359579E-05,1,674,-0,866102,1,674,0,03625543,1,674,-0,2900435,0,1287692,6,378271E-06,1,674,-0,9547265,1,674,0,3222705,1,674,-0,2376745
0,1292885,1,292439E-05,1,68075,-0,8701304,1,68075,0,04028382,1,68075,-0,2860151,0,1292885,9,399557E-06,1,68075,-0,9627832,1,68075,0,3182422,1,68075,-0,2296178
0,1298077,1,309224E-05,1,6875,-0,8580453,1,6875,0,04028382,1,6875,-0,2900435,0,1298077,1,040665E-05,1,6875,-0,97084,1,6875,0,3101854,1,6875,-0,2296178
0,1303269,1,393149E-05,1,69425,-0,8620737,1,69425,0,03222705,1,69425,-0,2860151,0,1303269,6,54612E-06,1,69425,-0,97084,1,69425,0,3142138,1,69425,-0,2376745
0,1308462,1,460288E-05,1,701,-0,8580453,1,701,0,03625543,1,701,-0,2900435,0,1308462,5,203327E-06,1,701,-0,97084,1,701,0,2981002,1,701,-0,2417029
0,1313654,1,544213E-05,1,70775,-0,8580453,1,70775,0,03625543,1,70775,-0,2900435,0,1313654,6,042573E-06,1,70775,-0,9668117,1,70775,0,2981002,1,70775,-0,2457313
0,1318846,1,594568E-05,1,7145,-0,8620737,1,7145,0,0443122,1,7145,-0,2981002,0,1318846,3,692683E-06,1,7145,-0,9587549,1,7145,0,2981002,1,7145,-0,2417029
0,1324039,1,275654E-05,1,72125,-0,8620737,1,72125,0,04834058,1,72125,-0,2981002,0,1324039,2,349889E-06,1,72125,-0,9506981,1,72125,0,2981002,1,72125,-0,2417029
0,1329231,1,05745E-05,1,728,-0,866102,1,728,0,0443122,1,728,-0,3021286,0,1329231,6,210422E-06,1,728,-0,9466697,1,728,0,2981002,1,728,-0,2457313
0,1334423,1,05745E-05,1,73475,-0,8620737,1,73475,0,05236896,1,73475,-0,2981002,0,1334423,1,12459E-05,1,73475,-0,9345846,1,73475,0,2940719,1,73475,-0,2417029
0,1339615,1,174945E-05,1,7415,-0,8620737,1,7415,0,04834058,1,7415,-0,306157,0,1339615,1,359579E-05,1,7415,-0,9345846,1,7415,0,2900435,1,7415,-0,2417029
0,1344808,1,409934E-05,1,74825,-0,8580453,1,74825,0,04834058,1,74825,-0,2981002,0,1344808,1,460288E-05,1,74825,-0,9426414,1,74825,0,2981002,1,74825,-0,2457313
0,135,1,628138E-05,1,755,-0,8540169,1,755,0,05236896,1,755,-0,2981002,0,135,1,460288E-05,1,755,-0,9466697,1,755,0,2981002,1,755,-0,2457313
0,1355192,1,594568E-05,1,76175,-0,8580453,1,76175,0,04834058,1,76175,-0,2981002,0,1355192,1,275654E-05,1,76175,-0,9506981,1,76175,0,3021286,1,76175,-0,2497597
0,1360385,1,460288E-05,1,7685,-0,8499885,1,7685,0,0443122,1,7685,-0,3021286,0,1360385,1,15816E-05,1,7685,-0,9506981,1,7685,0,3021286,1,7685,-0,2417029
0,1365577,1,359579E-05,1,77525,-0,8499885,1,77525,0,04834058,1,77525,-0,2940719,0,1365577,1,05745E-05,1,77525,-0,9547265,1,77525,0,3101854,1,77525,-0,2457313
0,1370769,1,326009E-05,1,782,-0,8540169,1,782,0,0443122,1,782,-0,2981002,0,1370769,9,735257E-06,1,782,-0,9627832,1,782,0,3142138,1,782,-0,2537881
0,1375962,1,376364E-05,1,78875,-0,8540169,1,78875,0,0443122,1,78875,-0,2981002,0,1375962,9,063859E-06,1,78875,-0,9587549,1,78875,0,3182422,1,78875,-0,2376745
0,1381154,1,393149E-05,1,7955,-0,8540169,1,7955,0,04028382,1,7955,-0,2900435,0,1381154,8,224613E-06,1,7955,-0,9627832,1,7955,0,3142138,1,7955,-0,2376745
0,1386346,1,376364E-05,1,80225,-0,8580453,1,80225,0,04028382,1,80225,-0,2940719,0,1386346,5,874724E-06,1,80225,-0,9506981,1,80225,0,3182422,1,80225,-0,2336462
0,1391539,1,326009E-05,1,809,-0,8620737,1,809,0,04028382,1,809,-0,2900435,0,1391539,4,531929E-06,1,809,-0,9547265,1,809,0,3101854,1,809,-0,2296178
0,1396731,1,09102E-05,1,81575,-0,8620737,1,81575,0,0443122,1,81575,-0,2860151,0,1396731,5,203327E-06,1,81575,-0,9506981,1,81575,0,3101854,1,81575,-0,2376745
0,1401923,7,888914E-06,1,8225,-0,8580453,1,8225,0,04028382,1,8225,-0,2900435,0,1401923,6,54612E-06,1,8225,-0,9547265,1,8225,0,3101854,1,8225,-0,2336462
0,1407115,8,560311E-06,1,82925,-0,8620737,1,82925,0,0443122,1,82925,-0,2900435,0,1407115,7,553216E-06,1,82925,-0,9506981,1,82925,0,306157,1,82925,-0,2417029
0,1412308,1,15816E-05,1,836,-0,866102,1,836,0,04028382,1,836,-0,2860151,0,1412308,7,721065E-06,1,836,-0,9587549,1,836,0,3142138,1,836,-0,2376745
0,14175,1,309224E-05,1,84275,-0,8620737,1,84275,0,0443122,1,84275,-0,2860151,0,14175,8,056764E-06,1,84275,-0,9547265,1,84275,0,3142138,1,84275,-0,2417029
0,1422692,1,225299E-05,1,8495,-0,8580453,1,8495,0,03222705,1,8495,-0,2900435,0,1422692,9,735257E-06,1,8495,-0,9547265,1,8495,0,3182422,1,8495,-0,2417029
0,1427885,1,19173E-05,1,85625,-0,8540169,1,85625,0,03222705,1,85625,-0,2900435,0,1427885,1,141375E-05,1,85625,-0,9587549,1,85625,0,3182422,1,85625,-0,2457313
0,1433077,1,225299E-05,1,863,-0,8580453,1,863,0,04028382,1,863,-0,2940719,0,1433077,1,107805E-05,1,863,-0,9627832,1,863,0,3182422,1,863,-0,2457313
0,1438269,1,242084E-05,1,86975,-0,8580453,1,86975,0,03625543,1,86975,-0,2940719,0,1438269,8,560311E-06,1,86975,-0,9627832,1,86975,0,3142138,1,86975,-0,2417029
0,1443462,1,258869E-05,1,8765,-0,8580453,1,8765,0,03222705,1,8765,-0,2981002,0,1443462,6,881819E-06,1,8765,-0,9547265,1,8765,0,3142138,1,8765,-0,2457313
0,1448654,1,19173E-05,1,88325,-0,8620737,1,88325,0,03625543,1,88325,-0,3021286,0,1448654,6,210422E-06,1,88325,-0,9627832,1,88325,0,3142138,1,88325,-0,2457313
0,1453846,1,05745E-05,1,89,-0,8580453,1,89,0,03222705,1,89,-0,2981002,0,1453846,7,217517E-06,1,89,-0,9547265,1,89,0,306157,1,89,-0,2417029
0,1459038,9,567407E-06,1,89675,-0,866102,1,89675,0,04028382,1,89675,-0,2981002,0,1459038,8,728161E-06,1,89675,-0,9506981,1,89675,0,306157,1,89675,-0,2376745
0,1464231,9,567407E-06,1,9035,-0,8620737,1,9035,0,0443122,1,9035,-0,2981002,0,1464231,7,888914E-06,1,9035,-0,9506981,1,9035,0,306157,1,9035,-0,2376745
0,1469423,9,567407E-06,1,91025,-0,8620737,1,91025,0,04834058,1,91025,-0,2981002,0,1469423,7,553216E-06,1,91025,-0,9506981,1,91025,0,3101854,1,91025,-0,2417029
0,1474615,9,231708E-06,1,917,-0,8580453,1,917,0,0443122,1,917,-0,2900435,0,1474615,8,728161E-06,1,917,-0,9466697,1,917,0,3021286,1,917,-0,2457313
0,1479808,9,903106E-06,1,92375,-0,8540169,1,92375,0,04834058,1,92375,-0,2981002,0,1479808,6,881819E-06,1,92375,-0,9426414,1,92375,0,3021286,1,92375,-0,2417029
0,1485,1,05745E-05,1,9305,-0,8580453,1,9305,0,04834058,1,9305,-0,2981002,0,1485,3,860533E-06,1,9305,-0,9506981,1,9305,0,306157,1,9305,-0,2457313
0,1490192,9,903106E-06,1,93725,-0,8580453,1,93725,0,04834058,1,93725,-0,2981002,0,1490192,5,035477E-06,1,93725,-0,9506981,1,93725,0,3021286,1,93725,-0,2497597
0,1495385,9,735257E-06,1,944,-0,8580453,1,944,0,04028382,1,944,-0,2981002,0,1495385,5,203327E-06,1,944,-0,9506981,1,944,0,306157,1,944,-0,2497597
0,1500577,9,231708E-06,1,95075,-0,8580453,1,95075,0,04028382,1,95075,-0,2940719,0,1500577,3,021286E-06,1,95075,-0,9547265,1,95075,0,3142138,1,95075,-0,2497597
0,1505769,9,063859E-06,1,9575,-0,8620737,1,9575,0,04028382,1,9575,-0,2940719,0,1505769,4,867628E-06,1,9575,-0,9466697,1,9575,0,3222705,1,9575,-0,2376745
0,1510962,1,02388E-05,1,96425,-0,8580453,1,96425,0,03625543,1,96425,-0,2860151,0,1510962,7,217517E-06,1,96425,-0,9547265,1,96425,0,3182422,1,96425,-0,2417029
0,1516154,1,141375E-05,1,971,-0,8620737,1,971,0,03625543,1,971,-0,2819867,0,1516154,7,721065E-06,1,971,-0,9506981,1,971,0,3182422,1,971,-0,2376745
0,1521346,1,05745E-05,1,97775,-0,8540169,1,97775,0,0443122,1,97775,-0,2819867,0,1521346,9,399557E-06,1,97775,-0,9547265,1,97775,0,3142138,1,97775,-0,2376745
0,1526538,9,567407E-06,1,9845,-0,8580453,1,9845,0,04028382,1,9845,-0,2900435,0,1526538,1,09102E-05,1,9845,-0,9506981,1,9845,0,3142138,1,9845,-0,2376745
0,1531731,8,392462E-06,1,99125,-0,8540169,1,99125,0,04028382,1,99125,-0,2900435,0,1531731,9,063859E-06,1,99125,-0,9547265,1,99125,0,3142138,1,99125,-0,2376745
0,1536923,8,392462E-06,1,998,-0,8540169,1,998,0,03625543,1,998,-0,2900435,0,1536923,7,553216E-06,1,998,-0,9506981,1,998,0,3142138,1,998,-0,2336462
0,1542115,1,19173E-05,2,00475,-0,8580453,2,00475,0,04028382,2,00475,-0,2940719,0,1542115,5,874724E-06,2,00475,-0,9506981,2,00475,0,3101854,2,00475,-0,2255894
0,1547308,1,460288E-05,2,0115,-0,8620737,2,0115,0,0443122,2,0115,-0,3021286,0,1547308,2,517739E-06,2,0115,-0,9547265,2,0115,0,3101854,2,0115,-0,2336462
0,15525,1,577783E-05,2,01825,-0,8620737,2,01825,0,04028382,2,01825,-0,306157,0,15525,1,510643E-06,2,01825,-0,9547265,2,01825,0,3142138,2,01825,-0,2417029
0,1557692,1,678492E-05,2,025,-0,8620737,2,025,0,03625543,2,025,-0,3021286,0,1557692,3,189135E-06,2,025,-0,9547265,2,025,0,3142138,2,025,-0,2376745
0,1562885,1,426719E-05,2,03175,-0,8620737,2,03175,0,03625543,2,03175,-0,3021286,0,1562885,7,049668E-06,2,03175,-0,9547265,2,03175,0,3142138,2,03175,-0,2376745
0,1568077,1,174945E-05,2,0385,-0,866102,2,0385,0,04028382,2,0385,-0,2981002,0,1568077,8,560311E-06,2,0385,-0,9627832,2,0385,0,306157,2,0385,-0,2497597
0,1573269,1,19173E-05,2,04525,-0,866102,2,04525,0,04834058,2,04525,-0,2981002,0,1573269,8,224613E-06,2,04525,-0,9587549,2,04525,0,3142138,2,04525,-0,2457313
0,1578462,1,09102E-05,2,052,-0,8620737,2,052,0,04028382,2,052,-0,2940719,0,1578462,7,888914E-06,2,052,-0,9627832,2,052,0,306157,2,052,-0,2497597
0,1583654,8,560311E-06,2,05875,-0,8540169,2,05875,0,0443122,2,05875,-0,2860151,0,1583654,8,560311E-06,2,05875,-0,9627832,2,05875,0,306157,2,05875,-0,2497597
0,1588846,8,224613E-06,2,0655,-0,8540169,2,0655,0,0443122,2,0655,-0,2981002,0,1588846,1,02388E-05,2,0655,-0,9627832,2,0655,0,3021286,2,0655,-0,2457313
0,1594038,7,888914E-06,2,07225,-0,8620737,2,07225,0,04028382,2,07225,-0,3021286,0,1594038,1,15816E-05,2,07225,-0,9627832,2,07225,0,306157,2,07225,-0,2376745
0,1599231,8,560311E-06,2,079,-0,8620737,2,079,0,04028382,2,079,-0,3021286,0,1599231,1,09102E-05,2,079,-0,9587549,2,079,0,306157,2,079,-0,2457313
0,1604423,9,903106E-06,2,08575,-0,8620737,2,08575,0,03625543,2,08575,-0,2981002,0,1604423,1,12459E-05,2,08575,-0,9547265,2,08575,0,306157,2,08575,-0,2376745
0,1609615,1,040665E-05,2,0925,-0,8580453,2,0925,0,0443122,2,0925,-0,3021286,0,1609615,1,258869E-05,2,0925,-0,9547265,2,0925,0,3101854,2,0925,-0,2417029
0,1614808,1,09102E-05,2,09925,-0,8580453,2,09925,0,0443122,2,09925,-0,2981002,0,1614808,1,393149E-05,2,09925,-0,9426414,2,09925,0,3142138,2,09925,-0,2336462
0,162,1,393149E-05,2,106,-0,8540169,2,106,0,03625543,2,106,-0,2981002,0,162,1,225299E-05,2,106,-0,9386129,2,106,0,3101854,2,106,-0,2376745
0,1625192,1,560998E-05,2,11275,-0,8540169,2,11275,0,04028382,2,11275,-0,2860151,0,1625192,7,553216E-06,2,11275,-0,9386129,2,11275,0,306157,2,11275,-0,2417029
0,1630385,1,628138E-05,2,1195,-0,8540169,2,1195,0,0443122,2,1195,-0,2900435,0,1630385,6,042573E-06,2,1195,-0,9386129,2,1195,0,306157,2,1195,-0,2417029
0,1635577,1,393149E-05,2,12625,-0,8540169,2,12625,0,04028382,2,12625,-0,2860151,0,1635577,8,560311E-06,2,12625,-0,9466697,2,12625,0,2981002,2,12625,-0,2417029
0,1640769,9,903106E-06,2,133,-0,866102,2,133,0,03625543,2,133,-0,2900435,0,1640769,1,05745E-05,2,133,-0,9506981,2,133,0,3101854,2,133,-0,2457313
0,1645962,1,02388E-05,2,13975,-0,866102,2,13975,0,03625543,2,13975,-0,2860151,0,1645962,9,567407E-06,2,13975,-0,9587549,2,13975,0,3142138,2,13975,-0,2376745
0,1651154,1,393149E-05,2,1465,-0,866102,2,1465,0,04028382,2,1465,-0,2940719,0,1651154,8,056764E-06,2,1465,-0,9627832,2,1465,0,3142138,2,1465,-0,2457313
0,1656346,1,510643E-05,2,15325,-0,8620737,2,15325,0,0443122,2,15325,-0,2981002,0,1656346,6,54612E-06,2,15325,-0,9668117,2,15325,0,3142138,2,15325,-0,2457313
0,1661538,1,292439E-05,2,16,-0,8620737,2,16,0,04028382,2,16,-0,2981002,0,1661538,7,385367E-06,2,16,-0,9627832,2,16,0,3142138,2,16,-0,2417029
0,1666731,1,05745E-05,2,16675,-0,8540169,2,16675,0,04834058,2,16675,-0,2940719,0,1666731,9,063859E-06,2,16675,-0,9547265,2,16675,0,306157,2,16675,-0,2417029
0,1671923,1,15816E-05,2,1735,-0,8540169,2,1735,0,0443122,2,1735,-0,2940719,0,1671923,1,12459E-05,2,1735,-0,9547265,2,1735,0,306157,2,1735,-0,2497597
0,1677115,1,393149E-05,2,18025,-0,8580453,2,18025,0,04028382,2,18025,-0,2860151,0,1677115,1,225299E-05,2,18025,-0,9466697,2,18025,0,3101854,2,18025,-0,2417029
0,1682308,1,460288E-05,2,187,-0,866102,2,187,0,03625543,2,187,-0,2860151,0,1682308,1,258869E-05,2,187,-0,9587549,2,187,0,3142138,2,187,-0,2417029
0,16875,1,460288E-05,2,19375,-0,866102,2,19375,0,0443122,2,19375,-0,2981002,0,16875,1,19173E-05,2,19375,-0,9506981,2,19375,0,3101854,2,19375,-0,2376745
0,1692692,1,510643E-05,2,2005,-0,866102,2,2005,0,05236896,2,2005,-0,2940719,0,1692692,1,19173E-05,2,2005,-0,9587549,2,2005,0,3101854,2,2005,-0,2255894
0,1697885,1,460288E-05,2,20725,-0,866102,2,20725,0,0443122,2,20725,-0,2900435,0,1697885,1,258869E-05,2,20725,-0,9627832,2,20725,0,3182422,2,20725,-0,2296178
0,1703077,1,510643E-05,2,214,-0,866102,2,214,0,04028382,2,214,-0,2900435,0,1703077,1,19173E-05,2,214,-0,9668117,2,214,0,3101854,2,214,-0,2296178
0,1708269,1,661708E-05,2,22075,-0,8580453,2,22075,0,04028382,2,22075,-0,2860151,0,1708269,9,567407E-06,2,22075,-0,9668117,2,22075,0,3101854,2,22075,-0,2376745
0,1713462,1,594568E-05,2,2275,-0,8580453,2,2275,0,03625543,2,2275,-0,2819867,0,1713462,7,553216E-06,2,2275,-0,9668117,2,2275,0,3101854,2,2275,-0,2417029
0,1718654,1,560998E-05,2,23425,-0,8580453,2,23425,0,03222705,2,23425,-0,2860151,0,1718654,6,54612E-06,2,23425,-0,9668117,2,23425,0,306157,2,23425,-0,2417029
0,1723846,1,594568E-05,2,241,-0,8620737,2,241,0,03222705,2,241,-0,2940719,0,1723846,5,874724E-06,2,241,-0,9627832,2,241,0,3101854,2,241,-0,2457313
0,1729039,1,527428E-05,2,24775,-0,8580453,2,24775,0,03625543,2,24775,-0,2940719,0,1729039,6,881819E-06,2,24775,-0,9547265,2,24775,0,3101854,2,24775,-0,2376745
0,1734231,1,326009E-05,2,2545,-0,8620737,2,2545,0,04028382,2,2545,-0,3021286,0,1734231,9,231708E-06,2,2545,-0,9506981,2,2545,0,3101854,2,2545,-0,2457313
0,1739423,1,258869E-05,2,26125,-0,8620737,2,26125,0,04028382,2,26125,-0,3021286,0,1739423,8,560311E-06,2,26125,-0,9466697,2,26125,0,3021286,2,26125,-0,2376745
0,1744615,1,326009E-05,2,268,-0,8620737,2,268,0,04834058,2,268,-0,2981002,0,1744615,6,54612E-06,2,268,-0,9386129,2,268,0,2981002,2,268,-0,2457313
0,1749808,1,393149E-05,2,27475,-0,8580453,2,27475,0,05236896,2,27475,-0,3021286,0,1749808,5,035477E-06,2,27475,-0,9386129,2,27475,0,306157,2,27475,-0,2457313
0,1755,1,393149E-05,2,2815,-0,8540169,2,2815,0,04834058,2,2815,-0,3021286,0,1755,4,531929E-06,2,2815,-0,9426414,2,2815,0,2981002,2,2815,-0,2537881
0,1760192,1,12459E-05,2,28825,-0,8540169,2,28825,0,05639734,2,28825,-0,2940719,0,1760192,5,203327E-06,2,28825,-0,9466697,2,28825,0,3021286,2,28825,-0,2537881
0,1765385,1,02388E-05,2,295,-0,8459601,2,295,0,05236896,2,295,-0,2981002,0,1765385,5,874724E-06,2,295,-0,9506981,2,295,0,3101854,2,295,-0,2497597
0,1770577,8,224613E-06,2,30175,-0,8499885,2,30175,0,04834058,2,30175,-0,3021286,0,1770577,7,217517E-06,2,30175,-0,9506981,2,30175,0,3101854,2,30175,-0,2417029
0,1775769,5,874724E-06,2,3085,-0,8540169,2,3085,0,04834058,2,3085,-0,306157,0,1775769,7,888914E-06,2,3085,-0,9506981,2,3085,0,3222705,2,3085,-0,2457313
0,1780962,7,217517E-06,2,31525,-0,8580453,2,31525,0,04028382,2,31525,-0,306157,0,1780962,8,224613E-06,2,31525,-0,9587549,2,31525,0,3262989,2,31525,-0,2457313
0,1786154,8,224613E-06,2,322,-0,8620737,2,322,0,03222705,2,322,-0,306157,0,1786154,8,89601E-06,2,322,-0,9627832,2,322,0,3182422,2,322,-0,2497597
0,1791346,8,224613E-06,2,32875,-0,8701304,2,32875,0,03222705,2,32875,-0,2981002,0,1791346,8,728161E-06,2,32875,-0,9587549,2,32875,0,3262989,2,32875,-0,2417029
0,1796539,8,89601E-06,2,3355,-0,8741588,2,3355,0,03625543,2,3355,-0,2981002,0,1796539,8,728161E-06,2,3355,-0,9627832,2,3355,0,3101854,2,3355,-0,2417029
0,1801731,7,553216E-06,2,34225,-0,8781872,2,34225,0,0443122,2,34225,-0,2940719,0,1801731,9,567407E-06,2,34225,-0,9668117,2,34225,0,3101854,2,34225,-0,2376745
0,1806923,5,874724E-06,2,349,-0,8741588,2,349,0,0443122,2,349,-0,2900435,0,1806923,1,107805E-05,2,349,-0,97084,2,349,0,3021286,2,349,-0,2417029
0,1812115,6,210422E-06,2,35575,-0,8620737,2,35575,0,04834058,2,35575,-0,2900435,0,1812115,1,12459E-05,2,35575,-0,97084,2,35575,0,2981002,2,35575,-0,2417029
0,1817308,5,203327E-06,2,3625,-0,8580453,2,3625,0,05639734,2,3625,-0,2860151,0,1817308,7,888914E-06,2,3625,-0,9668117,2,3625,0,2940719,2,3625,-0,2376745
0,18225,5,706875E-06,2,36925,-0,8499885,2,36925,0,05639734,2,36925,-0,2900435,0,18225,7,049668E-06,2,36925,-0,9587549,2,36925,0,2981002,2,36925,-0,2376745
0,1827692,6,54612E-06,2,376,-0,8459601,2,376,0,05639734,2,376,-0,2900435,0,1827692,6,54612E-06,2,376,-0,9547265,2,376,0,2940719,2,376,-0,2457313
0,1832885,5,874724E-06,2,38275,-0,8499885,2,38275,0,05236896,2,38275,-0,2940719,0,1832885,5,203327E-06,2,38275,-0,9547265,2,38275,0,2860151,2,38275,-0,2457313
0,1838077,6,042573E-06,2,3895,-0,8540169,2,3895,0,0443122,2,3895,-0,3021286,0,1838077,4,36408E-06,2,3895,-0,9466697,2,3895,0,2940719,2,3895,-0,2497597
0,1843269,7,888914E-06,2,39625,-0,8540169,2,39625,0,04028382,2,39625,-0,3021286,0,1843269,4,867628E-06,2,39625,-0,9426414,2,39625,0,3021286,2,39625,-0,2497597
0,1848462,8,89601E-06,2,403,-0,8620737,2,403,0,03222705,2,403,-0,306157,0,1848462,5,874724E-06,2,403,-0,9466697,2,403,0,3021286,2,403,-0,2537881
0,1853654,7,385367E-06,2,40975,-0,866102,2,40975,0,03625543,2,40975,-0,3021286,0,1853654,6,378271E-06,2,40975,-0,9547265,2,40975,0,3101854,2,40975,-0,2497597
0,1858846,4,531929E-06,2,4165,-0,8620737,2,4165,0,03222705,2,4165,-0,2981002,0,1858846,6,378271E-06,2,4165,-0,9587549,2,4165,0,3101854,2,4165,-0,2497597
0,1864039,2,853437E-06,2,42325,-0,8620737,2,42325,0,03222705,2,42325,-0,2940719,0,1864039,4,196231E-06,2,42325,-0,9547265,2,42325,0,3142138,2,42325,-0,2457313
0,1869231,5,203327E-06,2,43,-0,8580453,2,43,0,03222705,2,43,-0,2900435,0,1869231,3,860533E-06,2,43,-0,9627832,2,43,0,3101854,2,43,-0,2417029
0,1874423,8,560311E-06,2,43675,-0,8580453,2,43675,0,03625543,2,43675,-0,2900435,0,1874423,4,36408E-06,2,43675,-0,9587549,2,43675,0,3182422,2,43675,-0,2376745
0,1879615,9,735257E-06,2,4435,-0,8580453,2,4435,0,03625543,2,4435,-0,2860151,0,1879615,5,203327E-06,2,4435,-0,9587549,2,4435,0,3222705,2,4435,-0,2417029
0,1884808,9,231708E-06,2,45025,-0,8540169,2,45025,0,04028382,2,45025,-0,2860151,0,1884808,6,042573E-06,2,45025,-0,9547265,2,45025,0,3142138,2,45025,-0,2417029
0,189,9,231708E-06,2,457,-0,8540169,2,457,0,04028382,2,457,-0,2900435,0,189,5,706875E-06,2,457,-0,9587549,2,457,0,3182422,2,457,-0,2376745
0,1895192,8,728161E-06,2,46375,-0,8540169,2,46375,0,04834058,2,46375,-0,2860151,0,1895192,7,217517E-06,2,46375,-0,9506981,2,46375,0,3101854,2,46375,-0,2336462
0,1900385,9,231708E-06,2,4705,-0,8580453,2,4705,0,0443122,2,4705,-0,2900435,0,1900385,1,258869E-05,2,4705,-0,9466697,2,4705,0,306157,2,4705,-0,2255894
0,1905577,1,02388E-05,2,47725,-0,8620737,2,47725,0,05236896,2,47725,-0,2940719,0,1905577,1,628138E-05,2,47725,-0,9506981,2,47725,0,3101854,2,47725,-0,2296178
0,1910769,1,12459E-05,2,484,-0,8620737,2,484,0,05639734,2,484,-0,2981002,0,1910769,1,594568E-05,2,484,-0,9587549,2,484,0,306157,2,484,-0,2296178
0,1915962,1,359579E-05,2,49075,-0,8580453,2,49075,0,04834058,2,49075,-0,2940719,0,1915962,1,292439E-05,2,49075,-0,9506981,2,49075,0,306157,2,49075,-0,2336462
0,1921154,1,594568E-05,2,4975,-0,8580453,2,4975,0,04834058,2,4975,-0,2981002,0,1921154,9,735257E-06,2,4975,-0,9506981,2,4975,0,3182422,2,4975,-0,2417029
0,1926346,1,678492E-05,2,50425,-0,866102,2,50425,0,05236896,2,50425,-0,2981002,0,1926346,7,888914E-06,2,50425,-0,9547265,2,50425,0,3142138,2,50425,-0,2417029
0,1931538,1,527428E-05,2,511,-0,8620737,2,511,0,04834058,2,511,-0,2981002,0,1931538,7,553216E-06,2,511,-0,9627832,2,511,0,3101854,2,511,-0,2417029
0,1936731,1,258869E-05,2,51775,-0,8580453,2,51775,0,05236896,2,51775,-0,2900435,0,1936731,8,392462E-06,2,51775,-0,9668117,2,51775,0,3142138,2,51775,-0,2457313
0,1941923,1,05745E-05,2,5245,-0,8620737,2,5245,0,04834058,2,5245,-0,2860151,0,1941923,1,05745E-05,2,5245,-0,9668117,2,5245,0,3142138,2,5245,-0,2457313
0,1947115,1,12459E-05,2,53125,-0,8620737,2,53125,0,0443122,2,53125,-0,2860151,0,1947115,1,12459E-05,2,53125,-0,97084,2,53125,0,3101854,2,53125,-0,2497597
0,1952308,1,359579E-05,2,538,-0,866102,2,538,0,03625543,2,538,-0,2981002,0,1952308,9,063859E-06,2,538,-0,9627832,2,538,0,3101854,2,538,-0,2417029
0,19575,1,510643E-05,2,54475,-0,8701304,2,54475,0,0443122,2,54475,-0,2940719,0,19575,6,54612E-06,2,54475,-0,9627832,2,54475,0,306157,2,54475,-0,2376745
0,1962692,1,544213E-05,2,5515,-0,866102,2,5515,0,04028382,2,5515,-0,2981002,0,1962692,5,706875E-06,2,5515,-0,9587549,2,5515,0,3101854,2,5515,-0,2376745
0,1967885,1,309224E-05,2,55825,-0,8701304,2,55825,0,03625543,2,55825,-0,2981002,0,1967885,7,049668E-06,2,55825,-0,9668117,2,55825,0,306157,2,55825,-0,2376745
0,1973077,1,258869E-05,2,565,-0,866102,2,565,0,04028382,2,565,-0,2981002,0,1973077,9,063859E-06,2,565,-0,9587549,2,565,0,2981002,2,565,-0,2376745
0,1978269,1,493858E-05,2,57175,-0,8580453,2,57175,0,0443122,2,57175,-0,2981002,0,1978269,8,89601E-06,2,57175,-0,9547265,2,57175,0,3021286,2,57175,-0,2336462
0,1983462,1,762417E-05,2,5785,-0,8580453,2,5785,0,05236896,2,5785,-0,2981002,0,1983462,6,71397E-06,2,5785,-0,9547265,2,5785,0,2981002,2,5785,-0,2417029
0,1988654,1,728847E-05,2,58525,-0,8540169,2,58525,0,04834058,2,58525,-0,2981002,0,1988654,7,385367E-06,2,58525,-0,9466697,2,58525,0,2981002,2,58525,-0,2417029
0,1993846,1,560998E-05,2,592,-0,8580453,2,592,0,0443122,2,592,-0,2981002,0,1993846,9,567407E-06,2,592,-0,9587549,2,592,0,2940719,2,592,-0,2497597
0,1999038,1,359579E-05,2,59875,-0,8540169,2,59875,0,0443122,2,59875,-0,3021286,0,1999038,1,05745E-05,2,59875,-0,9466697,2,59875,0,2940719,2,59875,-0,2457313
0,2004231,1,359579E-05,2,6055,-0,8540169,2,6055,0,04028382,2,6055,-0,3021286,0,2004231,1,09102E-05,2,6055,-0,9506981,2,6055,0,2940719,2,6055,-0,2457313
0,2009423,1,863126E-05,2,61225,-0,8580453,2,61225,0,0443122,2,61225,-0,3021286,0,2009423,9,231708E-06,2,61225,-0,9466697,2,61225,0,2981002,2,61225,-0,2497597
0,2014615,2,064546E-05,2,619,-0,8540169,2,619,0,0443122,2,619,-0,306157,0,2014615,1,15816E-05,2,619,-0,9506981,2,619,0,3021286,2,619,-0,2497597
0,2019808,1,930266E-05,2,62575,-0,8459601,2,62575,0,0443122,2,62575,-0,3021286,0,2019808,1,594568E-05,2,62575,-0,9426414,2,62575,0,306157,2,62575,-0,2457313
0,2025,1,661708E-05,2,6325,-0,8540169,2,6325,0,0443122,2,6325,-0,3021286,0,2025,1,544213E-05,2,6325,-0,9466697,2,6325,0,3101854,2,6325,-0,2457313
0,2030192,1,443503E-05,2,63925,-0,8580453,2,63925,0,04028382,2,63925,-0,2940719,0,2030192,9,567407E-06,2,63925,-0,9547265,2,63925,0,3182422,2,63925,-0,2376745
0,2035385,1,527428E-05,2,646,-0,8620737,2,646,0,03625543,2,646,-0,2981002,0,2035385,5,874724E-06,2,646,-0,9627832,2,646,0,3142138,2,646,-0,2336462
0,2040577,1,326009E-05,2,65275,-0,8620737,2,65275,0,03625543,2,65275,-0,2981002,0,2040577,6,210422E-06,2,65275,-0,9587549,2,65275,0,3222705,2,65275,-0,2336462
0,2045769,9,903106E-06,2,6595,-0,8620737,2,6595,0,0443122,2,6595,-0,2981002,0,2045769,7,553216E-06,2,6595,-0,9627832,2,6595,0,3142138,2,6595,-0,2376745
0,2050962,9,567407E-06,2,66625,-0,8620737,2,66625,0,0443122,2,66625,-0,2940719,0,2050962,6,71397E-06,2,66625,-0,9627832,2,66625,0,3222705,2,66625,-0,2336462
0,2056154,1,040665E-05,2,673,-0,8580453,2,673,0,05236896,2,673,-0,3021286,0,2056154,5,203327E-06,2,673,-0,9587549,2,673,0,3101854,2,673,-0,2336462
0,2061346,9,231708E-06,2,67975,-0,8540169,2,67975,0,04834058,2,67975,-0,2981002,0,2061346,5,203327E-06,2,67975,-0,9506981,2,67975,0,306157,2,67975,-0,2417029
0,2066538,7,217517E-06,2,6865,-0,8499885,2,6865,0,05236896,2,6865,-0,3021286,0,2066538,7,217517E-06,2,6865,-0,9547265,2,6865,0,2981002,2,6865,-0,2417029
0,2071731,4,699778E-06,2,69325,-0,8580453,2,69325,0,0443122,2,69325,-0,3021286,0,2071731,1,040665E-05,2,69325,-0,9426414,2,69325,0,2981002,2,69325,-0,2457313
0,2076923,3,860533E-06,2,7,-0,8620737,2,7,0,05236896,2,7,-0,3021286,0,2076923,1,19173E-05,2,7,-0,9466697,2,7,0,2981002,2,7,-0,2537881
0,2082115,6,210422E-06,2,70675,-0,8701304,2,70675,0,05236896,2,70675,-0,3021286,0,2082115,1,02388E-05,2,70675,-0,9426414,2,70675,0,306157,2,70675,-0,2457313
0,2087308,6,54612E-06,2,7135,-0,8701304,2,7135,0,05639734,2,7135,-0,306157,0,2087308,7,217517E-06,2,7135,-0,9587549,2,7135,0,306157,2,7135,-0,2417029
0,20925,5,203327E-06,2,72025,-0,8701304,2,72025,0,05236896,2,72025,-0,2940719,0,20925,7,553216E-06,2,72025,-0,9547265,2,72025,0,3101854,2,72025,-0,2336462
0,2097692,7,049668E-06,2,727,-0,866102,2,727,0,0443122,2,727,-0,2900435,0,2097692,8,89601E-06,2,727,-0,9668117,2,727,0,306157,2,727,-0,2376745
0,2102885,7,553216E-06,2,73375,-0,866102,2,73375,0,0443122,2,73375,-0,2860151,0,2102885,1,007095E-05,2,73375,-0,9668117,2,73375,0,3101854,2,73375,-0,2336462
0,2108077,8,392462E-06,2,7405,-0,8620737,2,7405,0,04028382,2,7405,-0,2779583,0,2108077,9,231708E-06,2,7405,-0,9788967,2,7405,0,3021286,2,7405,-0,2296178
0,2113269,7,888914E-06,2,74725,-0,8620737,2,74725,0,03222705,2,74725,-0,2819867,0,2113269,6,210422E-06,2,74725,-0,97084,2,74725,0,306157,2,74725,-0,2296178
0,2118462,5,874724E-06,2,754,-0,8620737,2,754,0,03222705,2,754,-0,2779583,0,2118462,2,853437E-06,2,754,-0,9668117,2,754,0,3142138,2,754,-0,2336462
0,2123654,6,881819E-06,2,76075,-0,8620737,2,76075,0,03625543,2,76075,-0,2900435,0,2123654,3,860533E-06,2,76075,-0,9627832,2,76075,0,306157,2,76075,-0,2376745
0,2128846,8,728161E-06,2,7675,-0,8580453,2,7675,0,03625543,2,7675,-0,2981002,0,2128846,6,210422E-06,2,7675,-0,9506981,2,7675,0,3101854,2,7675,-0,2296178
0,2134039,8,560311E-06,2,77425,-0,8580453,2,77425,0,04028382,2,77425,-0,2981002,0,2134039,5,203327E-06,2,77425,-0,9426414,2,77425,0,3101854,2,77425,-0,2296178
0,2139231,1,02388E-05,2,781,-0,8620737,2,781,0,0443122,2,781,-0,2981002,0,2139231,4,196231E-06,2,781,-0,9426414,2,781,0,3021286,2,781,-0,2457313
0,2144423,1,393149E-05,2,78775,-0,8540169,2,78775,0,04834058,2,78775,-0,3021286,0,2144423,5,371176E-06,2,78775,-0,9345846,2,78775,0,3021286,2,78775,-0,2497597
0,2149615,1,493858E-05,2,7945,-0,8499885,2,7945,0,04834058,2,7945,-0,2981002,0,2149615,7,217517E-06,2,7945,-0,9305562,2,7945,0,2981002,2,7945,-0,2497597
0,2154808,1,208515E-05,2,80125,-0,8499885,2,80125,0,05639734,2,80125,-0,2981002,0,2154808,7,553216E-06,2,80125,-0,9345846,2,80125,0,3021286,2,80125,-0,2578164
0,216,9,567407E-06,2,808,-0,8459601,2,808,0,05236896,2,808,-0,3021286,0,216,8,392462E-06,2,808,-0,9426414,2,808,0,2981002,2,808,-0,2578164
0,2165192,9,063859E-06,2,81475,-0,8419318,2,81475,0,05639734,2,81475,-0,306157,0,2165192,1,05745E-05,2,81475,-0,9506981,2,81475,0,2981002,2,81475,-0,2537881
0,2170385,9,903106E-06,2,8215,-0,8499885,2,8215,0,05639734,2,8215,-0,3021286,0,2170385,1,326009E-05,2,8215,-0,9466697,2,8215,0,3142138,2,8215,-0,2578164
0,2175577,9,231708E-06,2,82825,-0,8499885,2,82825,0,04834058,2,82825,-0,3021286,0,2175577,1,376364E-05,2,82825,-0,9547265,2,82825,0,306157,2,82825,-0,2457313
0,2180769,9,231708E-06,2,835,-0,8580453,2,835,0,04834058,2,835,-0,306157,0,2180769,1,359579E-05,2,835,-0,9587549,2,835,0,306157,2,835,-0,2417029
0,2185962,9,567407E-06,2,84175,-0,8620737,2,84175,0,04834058,2,84175,-0,3021286,0,2185962,1,376364E-05,2,84175,-0,9587549,2,84175,0,3142138,2,84175,-0,2417029
0,2191154,8,89601E-06,2,8485,-0,866102,2,8485,0,04028382,2,8485,-0,306157,0,2191154,1,19173E-05,2,8485,-0,9668117,2,8485,0,3182422,2,8485,-0,2417029
0,2196346,9,063859E-06,2,85525,-0,8620737,2,85525,0,0443122,2,85525,-0,3021286,0,2196346,7,553216E-06,2,85525,-0,97084,2,85525,0,306157,2,85525,-0,2336462
0,2201539,8,560311E-06,2,862,-0,866102,2,862,0,04028382,2,862,-0,2981002,0,2201539,6,71397E-06,2,862,-0,9668117,2,862,0,3142138,2,862,-0,2376745
0,2206731,5,203327E-06,2,86875,-0,8741588,2,86875,0,0443122,2,86875,-0,2940719,0,2206731,8,224613E-06,2,86875,-0,97084,2,86875,0,3101854,2,86875,-0,2336462
0,2211923,3,189135E-06,2,8755,-0,8701304,2,8755,0,04028382,2,8755,-0,2940719,0,2211923,8,89601E-06,2,8755,-0,9668117,2,8755,0,306157,2,8755,-0,2376745
0,2217115,7,217517E-06,2,88225,-0,8701304,2,88225,0,0443122,2,88225,-0,2981002,0,2217115,8,560311E-06,2,88225,-0,9627832,2,88225,0,306157,2,88225,-0,2417029
0,2222308,1,05745E-05,2,889,-0,8701304,2,889,0,04028382,2,889,-0,2940719,0,2222308,1,040665E-05,2,889,-0,9587549,2,889,0,306157,2,889,-0,2457313
0,22275,1,107805E-05,2,89575,-0,8580453,2,89575,0,0443122,2,89575,-0,2860151,0,22275,1,359579E-05,2,89575,-0,9466697,2,89575,0,3021286,2,89575,-0,2376745
0,2232692,8,560311E-06,2,9025,-0,8540169,2,9025,0,0443122,2,9025,-0,2940719,0,2232692,1,359579E-05,2,9025,-0,9506981,2,9025,0,2900435,2,9025,-0,2417029
0,2237885,6,54612E-06,2,90925,-0,8540169,2,90925,0,04834058,2,90925,-0,2981002,0,2237885,1,359579E-05,2,90925,-0,9466697,2,90925,0,2900435,2,90925,-0,2376745
0,2243077,6,71397E-06,2,916,-0,8580453,2,916,0,05639734,2,916,-0,2940719,0,2243077,1,695277E-05,2,916,-0,9547265,2,916,0,2860151,2,916,-0,2376745
0,2248269,9,399557E-06,2,92275,-0,8580453,2,92275,0,05236896,2,92275,-0,3021286,0,2248269,1,728847E-05,2,92275,-0,9506981,2,92275,0,2819867,2,92275,-0,2457313
0,2253462,1,19173E-05,2,9295,-0,8580453,2,9295,0,05639734,2,9295,-0,306157,0,2253462,1,460288E-05,2,9295,-0,9587549,2,9295,0,2900435,2,9295,-0,2457313
0,2258654,1,19173E-05,2,93625,-0,866102,2,93625,0,05236896,2,93625,-0,306157,0,2258654,1,141375E-05,2,93625,-0,9627832,2,93625,0,2940719,2,93625,-0,2457313
0,2263846,1,107805E-05,2,943,-0,8701304,2,943,0,04834058,2,943,-0,3101854,0,2263846,1,19173E-05,2,943,-0,9668117,2,943,0,2940719,2,943,-0,2537881
0,2269039,9,903106E-06,2,94975,-0,866102,2,94975,0,04834058,2,94975,-0,306157,0,2269039,1,326009E-05,2,94975,-0,9668117,2,94975,0,2981002,2,94975,-0,2457313
0,2274231,1,040665E-05,2,9565,-0,8620737,2,9565,0,04834058,2,9565,-0,3021286,0,2274231,1,292439E-05,2,9565,-0,9627832,2,9565,0,3021286,2,9565,-0,2457313
0,2279423,1,19173E-05,2,96325,-0,8499885,2,96325,0,04834058,2,96325,-0,2981002,0,2279423,1,05745E-05,2,96325,-0,9587549,2,96325,0,3101854,2,96325,-0,2457313
0,2284615,1,12459E-05,2,97,-0,8499885,2,97,0,04834058,2,97,-0,2900435,0,2284615,1,02388E-05,2,97,-0,9547265,2,97,0,3101854,2,97,-0,2376745
0,2289808,9,063859E-06,2,97675,-0,8499885,2,97675,0,03625543,2,97675,-0,2779583,0,2289808,1,040665E-05,2,97675,-0,9386129,2,97675,0,3222705,2,97675,-0,2417029
0,2295,9,735257E-06,2,9835,-0,8540169,2,9835,0,04028382,2,9835,-0,2779583,0,2295,9,903106E-06,2,9835,-0,9345846,2,9835,0,3222705,2,9835,-0,2417029
0,2300192,1,242084E-05,2,99025,-0,8540169,2,99025,0,03222705,2,99025,-0,2779583,0,2300192,6,54612E-06,2,99025,-0,9345846,2,99025,0,3262989,2,99025,-0,2336462
0,2305385,1,594568E-05,2,997,-0,8580453,2,997,0,02417029,2,997,-0,2860151,0,2305385,3,692683E-06,2,997,-0,9386129,2,997,0,3222705,2,997,-0,2336462
0,2310577,1,527428E-05,3,00375,-0,8620737,3,00375,0,02417029,3,00375,-0,2860151,0,2310577,4,028382E-06,3,00375,-0,9386129,3,00375,0,3303273,3,00375,-0,2336462
0,2315769,1,05745E-05,3,0105,-0,8620737,3,0105,0,02417029,3,0105,-0,2900435,0,2315769,4,196231E-06,3,0105,-0,9386129,3,0105,0,3222705,3,0105,-0,2417029
0,2320962,8,224613E-06,3,01725,-0,8540169,3,01725,0,03625543,3,01725,-0,2981002,0,2320962,1,846342E-06,3,01725,-0,9426414,3,01725,0,3182422,3,01725,-0,2457313
0,2326154,8,89601E-06,3,024,-0,8580453,3,024,0,03625543,3,024,-0,306157,0,2326154,5,035478E-07,3,024,-0,9466697,3,024,0,3142138,3,024,-0,2457313
0,2331346,9,903106E-06,3,03075,-0,8580453,3,03075,0,0443122,3,03075,-0,2981002,0,2331346,-1,007096E-06,3,03075,-0,9547265,3,03075,0,3101854,3,03075,-0,2417029
0,2336538,1,09102E-05,3,0375,-0,8580453,3,0375,0,05236896,3,0375,-0,3021286,0,2336538,-2,853437E-06,3,0375,-0,9627832,3,0375,0,3101854,3,0375,-0,2457313
0,2341731,1,02388E-05,3,04425,-0,8620737,3,04425,0,05639734,3,04425,-0,2981002,0,2341731,5,035478E-07,3,04425,-0,9627832,3,04425,0,306157,3,04425,-0,2457313
0,2346923,1,15816E-05,3,051,-0,866102,3,051,0,05639734,3,051,-0,3021286,0,2346923,5,203327E-06,3,051,-0,9627832,3,051,0,306157,3,051,-0,2417029
0,2352115,1,460288E-05,3,05775,-0,8620737,3,05775,0,06042573,3,05775,-0,3021286,0,2352115,7,217517E-06,3,05775,-0,9668117,3,05775,0,3101854,3,05775,-0,2417029
0,2357308,1,359579E-05,3,0645,-0,8620737,3,0645,0,05639734,3,0645,-0,2981002,0,2357308,4,867628E-06,3,0645,-0,97084,3,0645,0,306157,3,0645,-0,2417029
0,23625,1,12459E-05,3,07125,-0,866102,3,07125,0,05639734,3,07125,-0,3021286,0,23625,3,189135E-06,3,07125,-0,97084,3,07125,0,3021286,3,07125,-0,2336462
0,2367692,1,02388E-05,3,078,-0,8620737,3,078,0,05236896,3,078,-0,2981002,0,2367692,3,692683E-06,3,078,-0,9748684,3,078,0,3021286,3,078,-0,2417029
0,2372885,1,040665E-05,3,08475,-0,8620737,3,08475,0,05236896,3,08475,-0,2940719,0,2372885,4,699778E-06,3,08475,-0,9627832,3,08475,0,3021286,3,08475,-0,2255894
0,2378077,1,242084E-05,3,0915,-0,8580453,3,0915,0,05236896,3,0915,-0,2981002,0,2378077,3,860533E-06,3,0915,-0,9587549,3,0915,0,2981002,3,0915,-0,2255894
0,2383269,1,560998E-05,3,09825,-0,8620737,3,09825,0,04028382,3,09825,-0,2940719,0,2383269,1,678492E-06,3,09825,-0,9587549,3,09825,0,2940719,3,09825,-0,2336462
0,2388462,1,829557E-05,3,105,-0,8620737,3,105,0,04028382,3,105,-0,2981002,0,2388462,5,035478E-07,3,105,-0,9547265,3,105,0,2981002,3,105,-0,2417029
0,2393654,1,863126E-05,3,11175,-0,8620737,3,11175,0,03625543,3,11175,-0,2981002,0,2393654,3,524834E-06,3,11175,-0,9506981,3,11175,0,2940719,3,11175,-0,2457313
0,2398846,1,678492E-05,3,1185,-0,8620737,3,1185,0,03222705,3,1185,-0,3021286,0,2398846,4,36408E-06,3,1185,-0,9466697,3,1185,0,2981002,3,1185,-0,2376745
0,2404038,1,326009E-05,3,12525,-0,8580453,3,12525,0,04028382,3,12525,-0,3021286,0,2404038,5,539025E-06,3,12525,-0,9466697,3,12525,0,2981002,3,12525,-0,2457313
0,2409231,1,225299E-05,3,132,-0,8580453,3,132,0,0443122,3,132,-0,3021286,0,2409231,8,89601E-06,3,132,-0,9466697,3,132,0,2900435,3,132,-0,2457313
0,2414423,1,326009E-05,3,13875,-0,8459601,3,13875,0,05236896,3,13875,-0,2940719,0,2414423,1,05745E-05,3,13875,-0,9466697,3,13875,0,2940719,3,13875,-0,2497597
0,2419615,1,376364E-05,3,1455,-0,8459601,3,1455,0,04834058,3,1455,-0,2940719,0,2419615,1,05745E-05,3,1455,-0,9506981,3,1455,0,2981002,3,1455,-0,2578164
0,2424808,1,443503E-05,3,15225,-0,8499885,3,15225,0,04834058,3,15225,-0,2900435,0,2424808,1,040665E-05,3,15225,-0,9547265,3,15225,0,2981002,3,15225,-0,2618448
0,243,1,376364E-05,3,159,-0,8499885,3,159,0,05236896,3,159,-0,2981002,0,243,1,007095E-05,3,159,-0,9587549,3,159,0,3101854,3,159,-0,2537881
0,2435192,1,376364E-05,3,16575,-0,8580453,3,16575,0,0443122,3,16575,-0,3021286,0,2435192,1,225299E-05,3,16575,-0,9587549,3,16575,0,3101854,3,16575,-0,2537881
0,2440385,1,326009E-05,3,1725,-0,8620737,3,1725,0,04028382,3,1725,-0,3101854,0,2440385,1,376364E-05,3,1725,-0,9627832,3,1725,0,3142138,3,1725,-0,2457313
0,2445577,1,107805E-05,3,17925,-0,866102,3,17925,0,04028382,3,17925,-0,3101854,0,2445577,1,19173E-05,3,17925,-0,9547265,3,17925,0,3182422,3,17925,-0,2336462
0,2450769,1,15816E-05,3,186,-0,8620737,3,186,0,04028382,3,186,-0,3021286,0,2450769,8,728161E-06,3,186,-0,9547265,3,186,0,3222705,3,186,-0,2376745
0,2455962,1,493858E-05,3,19275,-0,8620737,3,19275,0,04028382,3,19275,-0,3021286,0,2455962,6,881819E-06,3,19275,-0,9506981,3,19275,0,3142138,3,19275,-0,2336462
0,2461154,1,594568E-05,3,1995,-0,8620737,3,1995,0,04028382,3,1995,-0,3021286,0,2461154,5,203327E-06,3,1995,-0,9506981,3,1995,0,3101854,3,1995,-0,2417029
0,2466346,1,493858E-05,3,20625,-0,8580453,3,20625,0,0443122,3,20625,-0,2860151,0,2466346,4,699778E-06,3,20625,-0,9466697,3,20625,0,306157,3,20625,-0,2417029
0,2471538,1,359579E-05,3,213,-0,8580453,3,213,0,0443122,3,213,-0,2900435,0,2471538,3,356985E-06,3,213,-0,9506981,3,213,0,3021286,3,213,-0,2457313
0,2476731,1,02388E-05,3,21975,-0,866102,3,21975,0,05236896,3,21975,-0,2779583,0,2476731,6,210422E-06,3,21975,-0,9506981,3,21975,0,3021286,3,21975,-0,2376745
0,2481923,9,735257E-06,3,2265,-0,866102,3,2265,0,05236896,3,2265,-0,2819867,0,2481923,8,224613E-06,3,2265,-0,9587549,3,2265,0,306157,3,2265,-0,2376745
0,2487115,1,225299E-05,3,23325,-0,8620737,3,23325,0,06042573,3,23325,-0,2860151,0,2487115,7,217517E-06,3,23325,-0,97084,3,23325,0,306157,3,23325,-0,2336462
0,2492308,1,326009E-05,3,24,-0,866102,3,24,0,05639734,3,24,-0,2900435,0,2492308,8,224613E-06,3,24,-0,9788967,3,24,0,3021286,3,24,-0,2336462
0,24975,1,15816E-05,3,24675,-0,866102,3,24675,0,04834058,3,24675,-0,2940719,0,24975,1,141375E-05,3,24675,-0,9748684,3,24675,0,3101854,3,24675,-0,2376745
0,2502692,1,12459E-05,3,2535,-0,8701304,3,2535,0,0443122,3,2535,-0,3021286,0,2502692,1,258869E-05,3,2535,-0,9788967,3,2535,0,3142138,3,2535,-0,2336462
0,2507885,1,09102E-05,3,26025,-0,866102,3,26025,0,04028382,3,26025,-0,3021286,0,2507885,1,107805E-05,3,26025,-0,97084,3,26025,0,3142138,3,26025,-0,2376745
0,2513077,1,05745E-05,3,267,-0,866102,3,267,0,03625543,3,267,-0,306157,0,2513077,1,174945E-05,3,267,-0,9668117,3,267,0,3101854,3,267,-0,2457313
0,2518269,9,399557E-06,3,27375,-0,8701304,3,27375,0,03625543,3,27375,-0,306157,0,2518269,1,393149E-05,3,27375,-0,9506981,3,27375,0,3101854,3,27375,-0,2376745
0,2523462,8,392462E-06,3,2805,-0,866102,3,2805,0,04028382,3,2805,-0,3021286,0,2523462,1,242084E-05,3,2805,-0,9506981,3,2805,0,3021286,3,2805,-0,2457313
0,2528654,8,560311E-06,3,28725,-0,8580453,3,28725,0,04834058,3,28725,-0,2981002,0,2528654,1,040665E-05,3,28725,-0,9386129,3,28725,0,2940719,3,28725,-0,2417029
0,2533846,8,224613E-06,3,294,-0,8580453,3,294,0,05639734,3,294,-0,2940719,0,2533846,1,05745E-05,3,294,-0,9386129,3,294,0,2940719,3,294,-0,2457313
0,2539038,8,392462E-06,3,30075,-0,8499885,3,30075,0,06042573,3,30075,-0,2860151,0,2539038,1,19173E-05,3,30075,-0,9386129,3,30075,0,2860151,3,30075,-0,2417029
0,2544231,7,888914E-06,3,3075,-0,8499885,3,3075,0,06042573,3,3075,-0,2860151,0,2544231,1,05745E-05,3,3075,-0,9426414,3,3075,0,2819867,3,3075,-0,2376745
0,2549423,6,54612E-06,3,31425,-0,8459601,3,31425,0,06445411,3,31425,-0,2860151,0,2549423,8,224613E-06,3,31425,-0,9466697,3,31425,0,2981002,3,31425,-0,2417029
0,2554615,5,203327E-06,3,321,-0,8419318,3,321,0,05639734,3,321,-0,2900435,0,2554615,1,02388E-05,3,321,-0,9466697,3,321,0,2981002,3,321,-0,2457313
0,2559808,6,54612E-06,3,32775,-0,8499885,3,32775,0,05236896,3,32775,-0,3021286,0,2559808,1,107805E-05,3,32775,-0,9547265,3,32775,0,306157,3,32775,-0,2417029
0,2565,8,89601E-06,3,3345,-0,8499885,3,3345,0,04834058,3,3345,-0,306157,0,2565,9,567407E-06,3,3345,-0,9627832,3,3345,0,3101854,3,3345,-0,2457313
0,2570192,1,05745E-05,3,34125,-0,8580453,3,34125,0,04834058,3,34125,-0,306157,0,2570192,9,231708E-06,3,34125,-0,9627832,3,34125,0,3222705,3,34125,-0,2417029
0,2575385,1,242084E-05,3,348,-0,866102,3,348,0,03625543,3,348,-0,3101854,0,2575385,9,567407E-06,3,348,-0,9627832,3,348,0,3182422,3,348,-0,2457313
0,2580577,1,05745E-05,3,35475,-0,8701304,3,35475,0,03222705,3,35475,-0,3101854,0,2580577,7,888914E-06,3,35475,-0,9587549,3,35475,0,3262989,3,35475,-0,2336462
0,2585769,8,392462E-06,3,3615,-0,8741588,3,3615,0,03625543,3,3615,-0,2981002,0,2585769,8,560311E-06,3,3615,-0,9627832,3,3615,0,3182422,3,3615,-0,2417029
0,2590961,8,728161E-06,3,36825,-0,8741588,3,36825,0,04028382,3,36825,-0,2860151,0,2590961,9,735257E-06,3,36825,-0,9506981,3,36825,0,3182422,3,36825,-0,2376745
0,2596154,9,231708E-06,3,375,-0,866102,3,375,0,04028382,3,375,-0,2819867,0,2596154,6,71397E-06,3,375,-0,9587549,3,375,0,306157,3,375,-0,2417029
0,2601346,1,05745E-05,3,38175,-0,8701304,3,38175,0,0443122,3,38175,-0,2860151,0,2601346,4,196231E-06,3,38175,-0,9547265,3,38175,0,3021286,3,38175,-0,2376745
0,2606539,1,292439E-05,3,3885,-0,8580453,3,3885,0,0443122,3,3885,-0,2819867,0,2606539,4,531929E-06,3,3885,-0,9627832,3,3885,0,2981002,3,3885,-0,2376745
0,2611731,1,19173E-05,3,39525,-0,8580453,3,39525,0,04834058,3,39525,-0,2900435,0,2611731,5,035477E-06,3,39525,-0,9668117,3,39525,0,2940719,3,39525,-0,2417029
0,2616923,9,903106E-06,3,402,-0,8540169,3,402,0,05236896,3,402,-0,2981002,0,2616923,7,217517E-06,3,402,-0,9587549,3,402,0,3021286,3,402,-0,2376745
0,2622115,9,231708E-06,3,40875,-0,8540169,3,40875,0,05236896,3,40875,-0,3021286,0,2622115,7,721065E-06,3,40875,-0,9587549,3,40875,0,3021286,3,40875,-0,2457313
0,2627308,1,040665E-05,3,4155,-0,8540169,3,4155,0,04834058,3,4155,-0,306157,0,2627308,5,874724E-06,3,4155,-0,9547265,3,4155,0,2981002,3,4155,-0,2457313
0,26325,1,225299E-05,3,42225,-0,8499885,3,42225,0,0443122,3,42225,-0,306157,0,26325,5,706875E-06,3,42225,-0,9506981,3,42225,0,306157,3,42225,-0,2417029
0,2637692,1,326009E-05,3,429,-0,8580453,3,429,0,04834058,3,429,-0,306157,0,2637692,5,203327E-06,3,429,-0,9466697,3,429,0,306157,3,429,-0,2417029
0,2642885,1,258869E-05,3,43575,-0,8620737,3,43575,0,0443122,3,43575,-0,3021286,0,2642885,6,378271E-06,3,43575,-0,9506981,3,43575,0,306157,3,43575,-0,2417029
0,2648077,1,05745E-05,3,4425,-0,866102,3,4425,0,03625543,3,4425,-0,3021286,0,2648077,7,049668E-06,3,4425,-0,9506981,3,4425,0,3101854,3,4425,-0,2457313
0,2653269,9,567407E-06,3,44925,-0,8620737,3,44925,0,0443122,3,44925,-0,3021286,0,2653269,7,553216E-06,3,44925,-0,9466697,3,44925,0,2981002,3,44925,-0,2376745
0,2658462,9,903106E-06,3,456,-0,8620737,3,456,0,04028382,3,456,-0,2900435,0,2658462,8,89601E-06,3,456,-0,9506981,3,456,0,306157,3,456,-0,2457313
0,2663654,9,903106E-06,3,46275,-0,866102,3,46275,0,0443122,3,46275,-0,2860151,0,2663654,9,735257E-06,3,46275,-0,9466697,3,46275,0,3021286,3,46275,-0,2457313
0,2668846,9,231708E-06,3,4695,-0,8540169,3,4695,0,0443122,3,4695,-0,2819867,0,2668846,9,567407E-06,3,4695,-0,9547265,3,4695,0,2981002,3,4695,-0,2417029
0,2674038,8,89601E-06,3,47625,-0,8540169,3,47625,0,05236896,3,47625,-0,2940719,0,2674038,6,881819E-06,3,47625,-0,9547265,3,47625,0,3021286,3,47625,-0,2376745
0,2679231,9,903106E-06,3,483,-0,8540169,3,483,0,05236896,3,483,-0,2819867,0,2679231,4,028382E-06,3,483,-0,9627832,3,483,0,3021286,3,483,-0,2457313
0,2684423,1,15816E-05,3,48975,-0,8540169,3,48975,0,05236896,3,48975,-0,2860151,0,2684423,4,196231E-06,3,48975,-0,9547265,3,48975,0,3101854,3,48975,-0,2417029
0,2689615,1,326009E-05,3,4965,-0,8540169,3,4965,0,04834058,3,4965,-0,2900435,0,2689615,6,378271E-06,3,4965,-0,9587549,3,4965,0,3101854,3,4965,-0,2336462
0,2694808,1,527428E-05,3,50325,-0,8580453,3,50325,0,04834058,3,50325,-0,2981002,0,2694808,8,89601E-06,3,50325,-0,9547265,3,50325,0,3101854,3,50325,-0,2376745
0,27,1,594568E-05,3,51,-0,8620737,3,51,0,0443122,3,51,-0,3021286,0,27,1,174945E-05,3,51,-0,9547265,3,51,0,306157,3,51,-0,2376745
0,2705192,1,426719E-05,3,51675,-0,8620737,3,51675,0,0443122,3,51675,-0,306157,0,2705192,1,225299E-05,3,51675,-0,9547265,3,51675,0,3142138,3,51675,-0,2336462
0,2710385,1,225299E-05,3,5235,-0,866102,3,5235,0,0443122,3,5235,-0,306157,0,2710385,9,903106E-06,3,5235,-0,9506981,3,5235,0,306157,3,5235,-0,2376745
0,2715577,1,040665E-05,3,53025,-0,866102,3,53025,0,04028382,3,53025,-0,2940719,0,2715577,7,888914E-06,3,53025,-0,9506981,3,53025,0,3021286,3,53025,-0,2417029
0,2720769,1,040665E-05,3,537,-0,8580453,3,537,0,04834058,3,537,-0,2981002,0,2720769,8,392462E-06,3,537,-0,9506981,3,537,0,306157,3,537,-0,2376745
0,2725962,1,19173E-05,3,54375,-0,8580453,3,54375,0,05236896,3,54375,-0,2940719,0,2725962,6,881819E-06,3,54375,-0,9547265,3,54375,0,3021286,3,54375,-0,2417029
0,2731154,1,426719E-05,3,5505,-0,8580453,3,5505,0,0443122,3,5505,-0,2900435,0,2731154,6,54612E-06,3,5505,-0,9547265,3,5505,0,306157,3,5505,-0,2497597
0,2736346,1,527428E-05,3,55725,-0,8540169,3,55725,0,04834058,3,55725,-0,2860151,0,2736346,7,553216E-06,3,55725,-0,9547265,3,55725,0,3021286,3,55725,-0,2457313
0,2741539,1,393149E-05,3,564,-0,8540169,3,564,0,04834058,3,564,-0,2900435,0,2741539,6,54612E-06,3,564,-0,9547265,3,564,0,2981002,3,564,-0,2457313
0,2746731,1,05745E-05,3,57075,-0,8580453,3,57075,0,04834058,3,57075,-0,2900435,0,2746731,6,881819E-06,3,57075,-0,9547265,3,57075,0,2981002,3,57075,-0,2457313
0,2751923,1,12459E-05,3,5775,-0,8620737,3,5775,0,04028382,3,5775,-0,2900435,0,2751923,7,721065E-06,3,5775,-0,9587549,3,5775,0,3021286,3,5775,-0,2457313
0,2757115,1,359579E-05,3,58425,-0,8620737,3,58425,0,0443122,3,58425,-0,2940719,0,2757115,5,874724E-06,3,58425,-0,9668117,3,58425,0,3142138,3,58425,-0,2376745
0,2762308,1,359579E-05,3,591,-0,8620737,3,591,0,0443122,3,591,-0,3021286,0,2762308,4,531929E-06,3,591,-0,9668117,3,591,0,3101854,3,591,-0,2417029
0,27675,1,19173E-05,3,59775,-0,8701304,3,59775,0,04028382,3,59775,-0,3021286,0,27675,4,531929E-06,3,59775,-0,9627832,3,59775,0,3142138,3,59775,-0,2336462
0,2772692,1,05745E-05,3,6045,-0,8701304,3,6045,0,03625543,3,6045,-0,3021286,0,2772692,5,874724E-06,3,6045,-0,9668117,3,6045,0,3142138,3,6045,-0,2336462
0,2777885,9,567407E-06,3,61125,-0,8701304,3,61125,0,04028382,3,61125,-0,2981002,0,2777885,9,735257E-06,3,61125,-0,9547265,3,61125,0,3182422,3,61125,-0,2336462
0,2783077,1,040665E-05,3,618,-0,8701304,3,618,0,04028382,3,618,-0,2940719,0,2783077,1,225299E-05,3,618,-0,9587549,3,618,0,3142138,3,618,-0,2376745
0,2788269,1,326009E-05,3,62475,-0,8701304,3,62475,0,0443122,3,62475,-0,2940719,0,2788269,1,040665E-05,3,62475,-0,9506981,3,62475,0,306157,3,62475,-0,2417029
0,2793462,1,560998E-05,3,6315,-0,8620737,3,6315,0,04028382,3,6315,-0,2900435,0,2793462,8,560311E-06,3,6315,-0,9587549,3,6315,0,3021286,3,6315,-0,2336462
0,2798654,1,594568E-05,3,63825,-0,8540169,3,63825,0,04834058,3,63825,-0,2900435,0,2798654,7,553216E-06,3,63825,-0,9547265,3,63825,0,2981002,3,63825,-0,2376745
0,2803846,1,359579E-05,3,645,-0,8499885,3,645,0,04834058,3,645,-0,2900435,0,2803846,5,874724E-06,3,645,-0,9506981,3,645,0,2981002,3,645,-0,2457313
0,2809038,1,09102E-05,3,65175,-0,8459601,3,65175,0,05639734,3,65175,-0,2900435,0,2809038,5,203327E-06,3,65175,-0,9466697,3,65175,0,2981002,3,65175,-0,2417029
0,2814231,1,05745E-05,3,6585,-0,8459601,3,6585,0,05639734,3,6585,-0,2940719,0,2814231,7,888914E-06,3,6585,-0,9466697,3,6585,0,2981002,3,6585,-0,2497597
0,2819423,1,174945E-05,3,66525,-0,8580453,3,66525,0,05236896,3,66525,-0,2940719,0,2819423,1,02388E-05,3,66525,-0,9506981,3,66525,0,3021286,3,66525,-0,2417029
0,2824616,1,326009E-05,3,672,-0,8580453,3,672,0,05236896,3,672,-0,3021286,0,2824616,1,141375E-05,3,672,-0,9506981,3,672,0,306157,3,672,-0,2417029
0,2829808,1,326009E-05,3,67875,-0,8620737,3,67875,0,04834058,3,67875,-0,3021286,0,2829808,1,05745E-05,3,67875,-0,9506981,3,67875,0,3142138,3,67875,-0,2417029
0,2835,1,309224E-05,3,6855,-0,8620737,3,6855,0,04834058,3,6855,-0,3021286,0,2835,6,54612E-06,3,6855,-0,9587549,3,6855,0,3142138,3,6855,-0,2417029
0,2840192,1,02388E-05,3,69225,-0,8620737,3,69225,0,05236896,3,69225,-0,2900435,0,2840192,3,860533E-06,3,69225,-0,9547265,3,69225,0,3101854,3,69225,-0,2336462
0,2845385,9,231708E-06,3,699,-0,8580453,3,699,0,04028382,3,699,-0,2940719,0,2845385,5,035477E-06,3,699,-0,9627832,3,699,0,3021286,3,699,-0,2457313
0,2850577,1,05745E-05,3,70575,-0,8540169,3,70575,0,04028382,3,70575,-0,2900435,0,2850577,7,553216E-06,3,70575,-0,9466697,3,70575,0,3021286,3,70575,-0,2417029
0,2855769,1,12459E-05,3,7125,-0,8499885,3,7125,0,04028382,3,7125,-0,2900435,0,2855769,8,89601E-06,3,7125,-0,9506981,3,7125,0,3021286,3,7125,-0,2497597
0,2860962,1,174945E-05,3,71925,-0,8540169,3,71925,0,0443122,3,71925,-0,2900435,0,2860962,6,881819E-06,3,71925,-0,9506981,3,71925,0,3021286,3,71925,-0,2537881
0,2866154,1,275654E-05,3,726,-0,8540169,3,726,0,0443122,3,726,-0,2981002,0,2866154,4,196231E-06,3,726,-0,9506981,3,726,0,2981002,3,726,-0,2537881
0,2871346,1,359579E-05,3,73275,-0,8540169,3,73275,0,05236896,3,73275,-0,3021286,0,2871346,5,035477E-06,3,73275,-0,9466697,3,73275,0,3021286,3,73275,-0,2457313
0,2876539,1,326009E-05,3,7395,-0,8620737,3,7395,0,04834058,3,7395,-0,306157,0,2876539,6,881819E-06,3,7395,-0,9587549,3,7395,0,306157,3,7395,-0,2417029
0,2881731,1,12459E-05,3,74625,-0,8620737,3,74625,0,0443122,3,74625,-0,306157,0,2881731,6,378271E-06,3,74625,-0,9627832,3,74625,0,3021286,3,74625,-0,2376745
0,2886923,9,567407E-06,3,753,-0,866102,3,753,0,04834058,3,753,-0,3021286,0,2886923,7,049668E-06,3,753,-0,9668117,3,753,0,3101854,3,753,-0,2376745
0,2892115,1,040665E-05,3,75975,-0,8701304,3,75975,0,04028382,3,75975,-0,3021286,0,2892115,8,560311E-06,3,75975,-0,9627832,3,75975,0,3142138,3,75975,-0,2336462
0,2897308,1,12459E-05,3,7665,-0,866102,3,7665,0,04028382,3,7665,-0,2981002,0,2897308,9,567407E-06,3,7665,-0,9627832,3,7665,0,3142138,3,7665,-0,2336462
0,29025,1,19173E-05,3,77325,-0,866102,3,77325,0,04834058,3,77325,-0,2860151,0,29025,8,728161E-06,3,77325,-0,9627832,3,77325,0,3142138,3,77325,-0,2336462
0,2907692,9,231708E-06,3,78,-0,866102,3,78,0,0443122,3,78,-0,2900435,0,2907692,1,05745E-05,3,78,-0,9587549,3,78,0,306157,3,78,-0,2376745
0,2912885,6,881819E-06,3,78675,-0,8620737,3,78675,0,04834058,3,78675,-0,2860151,0,2912885,1,493858E-05,3,78675,-0,9547265,3,78675,0,2981002,3,78675,-0,2417029
0,2918077,9,231708E-06,3,7935,-0,8580453,3,7935,0,0443122,3,7935,-0,2900435,0,2918077,1,292439E-05,3,7935,-0,9506981,3,7935,0,2981002,3,7935,-0,2376745
0,2923269,1,225299E-05,3,80025,-0,8580453,3,80025,0,05236896,3,80025,-0,2981002,0,2923269,7,888914E-06,3,80025,-0,9466697,3,80025,0,3021286,3,80025,-0,2376745
0,2928461,1,05745E-05,3,807,-0,8580453,3,807,0,05639734,3,807,-0,2981002,0,2928461,6,881819E-06,3,807,-0,9466697,3,807,0,2981002,3,807,-0,2336462
0,2933654,8,224613E-06,3,81375,-0,8540169,3,81375,0,05236896,3,81375,-0,2940719,0,2933654,9,903106E-06,3,81375,-0,9386129,3,81375,0,2981002,3,81375,-0,2336462
0,2938846,8,560311E-06,3,8205,-0,8540169,3,8205,0,04834058,3,8205,-0,2981002,0,2938846,1,225299E-05,3,8205,-0,9466697,3,8205,0,306157,3,8205,-0,2376745
0,2944039,1,007095E-05,3,82725,-0,8540169,3,82725,0,0443122,3,82725,-0,3021286,0,2944039,1,275654E-05,3,82725,-0,9506981,3,82725,0,3101854,3,82725,-0,2376745
0,2949231,9,903106E-06,3,834,-0,8540169,3,834,0,0443122,3,834,-0,306157,0,2949231,1,292439E-05,3,834,-0,9587549,3,834,0,3101854,3,834,-0,2497597
0,2954423,9,567407E-06,3,84075,-0,8580453,3,84075,0,0443122,3,84075,-0,3021286,0,2954423,1,141375E-05,3,84075,-0,9587549,3,84075,0,3142138,3,84075,-0,2457313
0,2959615,9,063859E-06,3,8475,-0,8540169,3,8475,0,0443122,3,8475,-0,3021286,0,2959615,9,567407E-06,3,8475,-0,9587549,3,8475,0,3142138,3,8475,-0,2497597
0,2964808,8,560311E-06,3,85425,-0,8620737,3,85425,0,04834058,3,85425,-0,2981002,0,2964808,6,378271E-06,3,85425,-0,9627832,3,85425,0,3101854,3,85425,-0,2417029
0,297,1,19173E-05,3,861,-0,8620737,3,861,0,0443122,3,861,-0,2940719,0,297,6,378271E-06,3,861,-0,9587549,3,861,0,306157,3,861,-0,2417029
0,2975192,1,409934E-05,3,86775,-0,8580453,3,86775,0,05236896,3,86775,-0,2940719,0,2975192,8,89601E-06,3,86775,-0,9547265,3,86775,0,306157,3,86775,-0,2457313
0,2980385,1,376364E-05,3,8745,-0,8580453,3,8745,0,04834058,3,8745,-0,3021286,0,2980385,7,721065E-06,3,8745,-0,9506981,3,8745,0,2981002,3,8745,-0,2457313
0,2985577,1,258869E-05,3,88125,-0,8580453,3,88125,0,05639734,3,88125,-0,2940719,0,2985577,7,049668E-06,3,88125,-0,9506981,3,88125,0,2981002,3,88125,-0,2336462
0,2990769,1,12459E-05,3,888,-0,8540169,3,888,0,05236896,3,888,-0,2981002,0,2990769,9,231708E-06,3,888,-0,9587549,3,888,0,2940719,3,888,-0,2417029
0,2995962,1,05745E-05,3,89475,-0,8580453,3,89475,0,05236896,3,89475,-0,2981002,0,2995962,1,05745E-05,3,89475,-0,9547265,3,89475,0,2981002,3,89475,-0,2376745
0,3001154,9,903106E-06,3,9015,-0,8620737,3,9015,0,0443122,3,9015,-0,306157,0,3001154,9,231708E-06,3,9015,-0,9547265,3,9015,0,2981002,3,9015,-0,2376745
0,3006346,9,231708E-06,3,90825,-0,8580453,3,90825,0,04834058,3,90825,-0,2981002,0,3006346,1,02388E-05,3,90825,-0,9547265,3,90825,0,2981002,3,90825,-0,2417029
0,3011538,9,735257E-06,3,915,-0,8620737,3,915,0,0443122,3,915,-0,2981002,0,3011538,1,174945E-05,3,915,-0,9506981,3,915,0,2981002,3,915,-0,2457313
0,3016731,9,903106E-06,3,92175,-0,8620737,3,92175,0,04834058,3,92175,-0,2940719,0,3016731,1,174945E-05,3,92175,-0,9587549,3,92175,0,3021286,3,92175,-0,2457313
0,3021923,9,735257E-06,3,9285,-0,8580453,3,9285,0,05236896,3,9285,-0,2940719,0,3021923,9,231708E-06,3,9285,-0,9587549,3,9285,0,3021286,3,9285,-0,2457313
0,3027115,1,02388E-05,3,93525,-0,8580453,3,93525,0,05236896,3,93525,-0,2940719,0,3027115,5,035477E-06,3,93525,-0,9547265,3,93525,0,2981002,3,93525,-0,2376745
0,3032308,1,12459E-05,3,942,-0,8540169,3,942,0,05236896,3,942,-0,2860151,0,3032308,5,203327E-06,3,942,-0,9627832,3,942,0,3021286,3,942,-0,2336462
0,30375,1,208515E-05,3,94875,-0,8580453,3,94875,0,05236896,3,94875,-0,2940719,0,30375,7,721065E-06,3,94875,-0,9587549,3,94875,0,3021286,3,94875,-0,2376745
0,3042692,1,225299E-05,3,9555,-0,8580453,3,9555,0,04834058,3,9555,-0,2981002,0,3042692,9,063859E-06,3,9555,-0,9587549,3,9555,0,3101854,3,9555,-0,2457313
0,3047885,1,12459E-05,3,96225,-0,8580453,3,96225,0,04834058,3,96225,-0,2940719,0,3047885,1,007095E-05,3,96225,-0,9506981,3,96225,0,3101854,3,96225,-0,2497597
0,3053077,1,05745E-05,3,969,-0,8540169,3,969,0,0443122,3,969,-0,2981002,0,3053077,1,007095E-05,3,969,-0,9506981,3,969,0,3101854,3,969,-0,2457313
0,3058269,1,09102E-05,3,97575,-0,8580453,3,97575,0,04028382,3,97575,-0,3021286,0,3058269,7,888914E-06,3,97575,-0,9506981,3,97575,0,3101854,3,97575,-0,2376745
0,3063461,1,292439E-05,3,9825,-0,8540169,3,9825,0,04028382,3,9825,-0,3021286,0,3063461,8,560311E-06,3,9825,-0,9506981,3,9825,0,3101854,3,9825,-0,2376745
0,3068654,1,477073E-05,3,98925,-0,8620737,3,98925,0,0443122,3,98925,-0,2981002,0,3068654,9,903106E-06,3,98925,-0,9587549,3,98925,0,3101854,3,98925,-0,2417029
0,3073846,1,258869E-05,3,996,-0,8620737,3,996,0,04834058,3,996,-0,2940719,0,3073846,1,040665E-05,3,996,-0,9466697,3,996,0,3101854,3,996,-0,2376745
0,3079039,8,224613E-06,4,00275,-0,8620737,4,00275,0,04834058,4,00275,-0,2940719,0,3079039,1,275654E-05,4,00275,-0,9506981,4,00275,0,3021286,4,00275,-0,2376745
0,3084231,8,392462E-06,4,0095,-0,8620737,4,0095,0,04834058,4,0095,-0,2940719,0,3084231,1,409934E-05,4,0095,-0,9506981,4,0095,0,3021286,4,0095,-0,2376745
0,3089423,1,02388E-05,4,01625,-0,866102,4,01625,0,05236896,4,01625,-0,2900435,0,3089423,1,510643E-05,4,01625,-0,9587549,4,01625,0,3142138,4,01625,-0,2336462
0,3094615,1,225299E-05,4,023,-0,8580453,4,023,0,05236896,4,023,-0,2900435,0,3094615,1,527428E-05,4,023,-0,9547265,4,023,0,2981002,4,023,-0,2376745
0,3099808,1,174945E-05,4,02975,-0,8580453,4,02975,0,05236896,4,02975,-0,2900435,0,3099808,1,19173E-05,4,02975,-0,9547265,4,02975,0,3021286,4,02975,-0,2417029
0,3105,9,903106E-06,4,0365,-0,8540169,4,0365,0,05639734,4,0365,-0,3021286,0,3105,1,02388E-05,4,0365,-0,9587549,4,0365,0,2981002,4,0365,-0,2417029
0,3110192,9,231708E-06,4,04325,-0,8499885,4,04325,0,05639734,4,04325,-0,2981002,0,3110192,1,040665E-05,4,04325,-0,9587549,4,04325,0,306157,4,04325,-0,2417029
0,3115385,8,89601E-06,4,05,-0,8540169,4,05,0,04834058,4,05,-0,306157,0,3115385,8,560311E-06,4,05,-0,9547265,4,05,0,306157,4,05,-0,2457313
0,3120577,8,224613E-06,4,05675,-0,8499885,4,05675,0,04834058,4,05675,-0,306157,0,3120577,6,881819E-06,4,05675,-0,9547265,4,05675,0,3101854,4,05675,-0,2457313
0,3125769,7,049668E-06,4,0635,-0,8580453,4,0635,0,04834058,4,0635,-0,3021286,0,3125769,8,224613E-06,4,0635,-0,9506981,4,0635,0,3142138,4,0635,-0,2417029
0,3130962,9,063859E-06,4,07025,-0,8620737,4,07025,0,04834058,4,07025,-0,3021286,0,3130962,7,888914E-06,4,07025,-0,9587549,4,07025,0,306157,4,07025,-0,2457313
0,3136154,1,258869E-05,4,077,-0,866102,4,077,0,0443122,4,077,-0,3021286,0,3136154,5,203327E-06,4,077,-0,9547265,4,077,0,3021286,4,077,-0,2497597
0,3141346,1,426719E-05,4,08375,-0,866102,4,08375,0,0443122,4,08375,-0,3021286,0,3141346,5,874724E-06,4,08375,-0,9587549,4,08375,0,306157,4,08375,-0,2336462
0,3146538,1,443503E-05,4,0905,-0,8620737,4,0905,0,04834058,4,0905,-0,2981002,0,3146538,8,89601E-06,4,0905,-0,9506981,4,0905,0,3021286,4,0905,-0,2376745
0,3151731,1,258869E-05,4,09725,-0,8620737,4,09725,0,05236896,4,09725,-0,2940719,0,3151731,1,040665E-05,4,09725,-0,9506981,4,09725,0,306157,4,09725,-0,2296178
0,3156923,1,040665E-05,4,104,-0,8580453,4,104,0,04834058,4,104,-0,2900435,0,3156923,1,02388E-05,4,104,-0,9506981,4,104,0,2940719,4,104,-0,2376745
0,3162116,8,224613E-06,4,11075,-0,8580453,4,11075,0,04834058,4,11075,-0,2900435,0,3162116,9,231708E-06,4,11075,-0,9547265,4,11075,0,2981002,4,11075,-0,2336462
0,3167308,6,54612E-06,4,1175,-0,8620737,4,1175,0,05639734,4,1175,-0,2900435,0,3167308,9,903106E-06,4,1175,-0,9627832,4,1175,0,2900435,4,1175,-0,2336462
0,31725,5,874724E-06,4,12425,-0,8620737,4,12425,0,06042573,4,12425,-0,2900435,0,31725,9,903106E-06,4,12425,-0,9587549,4,12425,0,2981002,4,12425,-0,2336462
0,3177692,7,721065E-06,4,131,-0,8620737,4,131,0,06042573,4,131,-0,2981002,0,3177692,9,903106E-06,4,131,-0,9627832,4,131,0,2940719,4,131,-0,2417029
0,3182885,9,231708E-06,4,13775,-0,8620737,4,13775,0,06042573,4,13775,-0,3021286,0,3182885,1,15816E-05,4,13775,-0,9587549,4,13775,0,306157,4,13775,-0,2417029
0,3188077,1,05745E-05,4,1445,-0,8620737,4,1445,0,05639734,4,1445,-0,306157,0,3188077,1,292439E-05,4,1445,-0,9506981,4,1445,0,3021286,4,1445,-0,2457313
0,3193269,1,12459E-05,4,15125,-0,8580453,4,15125,0,0443122,4,15125,-0,2981002,0,3193269,1,007095E-05,4,15125,-0,9547265,4,15125,0,306157,4,15125,-0,2457313
0,3198462,9,735257E-06,4,158,-0,8620737,4,158,0,04028382,4,158,-0,3021286,0,3198462,5,874724E-06,4,158,-0,9506981,4,158,0,3142138,4,158,-0,2497597
0,3203654,9,567407E-06,4,16475,-0,8580453,4,16475,0,03625543,4,16475,-0,2981002,0,3203654,7,217517E-06,4,16475,-0,9506981,4,16475,0,3182422,4,16475,-0,2537881
0,3208846,1,05745E-05,4,1715,-0,8540169,4,1715,0,02819867,4,1715,-0,2981002,0,3208846,7,553216E-06,4,1715,-0,9506981,4,1715,0,3222705,4,1715,-0,2497597
0,3214039,1,02388E-05,4,17825,-0,8540169,4,17825,0,03625543,4,17825,-0,2940719,0,3214039,7,217517E-06,4,17825,-0,9466697,4,17825,0,3303273,4,17825,-0,2457313
0,3219231,9,903106E-06,4,185,-0,8499885,4,185,0,03222705,4,185,-0,2860151,0,3219231,6,378271E-06,4,185,-0,9466697,4,185,0,3222705,4,185,-0,2457313
0,3224423,1,040665E-05,4,19175,-0,8540169,4,19175,0,03625543,4,19175,-0,2819867,0,3224423,5,203327E-06,4,19175,-0,9466697,4,19175,0,3142138,4,19175,-0,2497597
0,3229615,1,05745E-05,4,1985,-0,8499885,4,1985,0,03625543,4,1985,-0,2779583,0,3229615,7,553216E-06,4,1985,-0,9466697,4,1985,0,3101854,4,1985,-0,2457313
0,3234808,1,05745E-05,4,20525,-0,8540169,4,20525,0,0443122,4,20525,-0,2819867,0,3234808,1,040665E-05,4,20525,-0,9547265,4,20525,0,3101854,4,20525,-0,2336462
0,324,1,007095E-05,4,212,-0,8620737,4,212,0,04834058,4,212,-0,2900435,0,324,1,09102E-05,4,212,-0,9547265,4,212,0,3021286,4,212,-0,2376745
0,3245192,7,888914E-06,4,21875,-0,8620737,4,21875,0,06042573,4,21875,-0,2900435,0,3245192,8,392462E-06,4,21875,-0,9627832,4,21875,0,306157,4,21875,-0,2255894
0,3250385,8,560311E-06,4,2255,-0,866102,4,2255,0,06042573,4,2255,-0,2981002,0,3250385,7,721065E-06,4,2255,-0,9668117,4,2255,0,2981002,4,2255,-0,2376745
0,3255577,9,231708E-06,4,23225,-0,8620737,4,23225,0,06848249,4,23225,-0,2940719,0,3255577,9,231708E-06,4,23225,-0,9627832,4,23225,0,2940719,4,23225,-0,2296178
0,3260769,9,567407E-06,4,239,-0,8580453,4,239,0,06445411,4,239,-0,2981002,0,3260769,8,224613E-06,4,239,-0,9587549,4,239,0,2940719,4,239,-0,2376745
0,3265962,1,12459E-05,4,24575,-0,8540169,4,24575,0,06042573,4,24575,-0,2981002,0,3265962,3,692683E-06,4,24575,-0,9506981,4,24575,0,2940719,4,24575,-0,2457313
0,3271154,1,107805E-05,4,2525,-0,8580453,4,2525,0,05639734,4,2525,-0,3021286,0,3271154,-1,678492E-07,4,2525,-0,9506981,4,2525,0,2940719,4,2525,-0,2417029
0,3276346,1,05745E-05,4,25925,-0,8580453,4,25925,0,05639734,4,25925,-0,3021286,0,3276346,2,853437E-06,4,25925,-0,9506981,4,25925,0,2940719,4,25925,-0,2457313
0,3281538,1,05745E-05,4,266,-0,8580453,4,266,0,05236896,4,266,-0,2981002,0,3281538,8,224613E-06,4,266,-0,9587549,4,266,0,2940719,4,266,-0,2417029
0,3286731,9,903106E-06,4,27275,-0,866102,4,27275,0,05236896,4,27275,-0,2940719,0,3286731,1,05745E-05,4,27275,-0,9627832,4,27275,0,306157,4,27275,-0,2417029
0,3291923,1,007095E-05,4,2795,-0,866102,4,2795,0,0443122,4,2795,-0,2940719,0,3291923,9,903106E-06,4,2795,-0,9668117,4,2795,0,2981002,4,2795,-0,2336462
0,3297116,1,326009E-05,4,28625,-0,8701304,4,28625,0,03625543,4,28625,-0,2900435,0,3297116,1,02388E-05,4,28625,-0,9668117,4,28625,0,3021286,4,28625,-0,2336462
0,3302308,1,527428E-05,4,293,-0,866102,4,293,0,03222705,4,293,-0,2860151,0,3302308,1,15816E-05,4,293,-0,9627832,4,293,0,2981002,4,293,-0,2417029
0,33075,1,326009E-05,4,29975,-0,8620737,4,29975,0,03222705,4,29975,-0,2900435,0,33075,1,15816E-05,4,29975,-0,9668117,4,29975,0,2981002,4,29975,-0,2417029
0,3312692,1,19173E-05,4,3065,-0,8620737,4,3065,0,03222705,4,3065,-0,2940719,0,3312692,9,231708E-06,4,3065,-0,9627832,4,3065,0,2981002,4,3065,-0,2417029
0,3317885,1,326009E-05,4,31325,-0,8580453,4,31325,0,04028382,4,31325,-0,2981002,0,3317885,9,063859E-06,4,31325,-0,9587549,4,31325,0,2940719,4,31325,-0,2376745
0,3323077,1,594568E-05,4,32,-0,8620737,4,32,0,0443122,4,32,-0,3021286,0,3323077,8,560311E-06,4,32,-0,9426414,4,32,0,3021286,4,32,-0,2497597
0,3328269,1,762417E-05,4,32675,-0,8580453,4,32675,0,05236896,4,32675,-0,306157,0,3328269,6,881819E-06,4,32675,-0,9426414,4,32675,0,3021286,4,32675,-0,2457313
0,3333462,1,829557E-05,4,3335,-0,8580453,4,3335,0,05639734,4,3335,-0,306157,0,3333462,6,881819E-06,4,3335,-0,9426414,4,3335,0,3021286,4,3335,-0,2376745
0,3338654,1,728847E-05,4,34025,-0,8620737,4,34025,0,06042573,4,34025,-0,306157,0,3338654,9,903106E-06,4,34025,-0,9466697,4,34025,0,306157,4,34025,-0,2457313
0,3343846,1,460288E-05,4,347,-0,8540169,4,347,0,05639734,4,347,-0,2981002,0,3343846,1,09102E-05,4,347,-0,9547265,4,347,0,3021286,4,347,-0,2457313
0,3349038,1,258869E-05,4,35375,-0,8540169,4,35375,0,05639734,4,35375,-0,2940719,0,3349038,9,567407E-06,4,35375,-0,9506981,4,35375,0,306157,4,35375,-0,2457313
0,3354231,1,15816E-05,4,3605,-0,8540169,4,3605,0,05236896,4,3605,-0,2940719,0,3354231,7,553216E-06,4,3605,-0,9627832,4,3605,0,306157,4,3605,-0,2417029
0,3359423,1,12459E-05,4,36725,-0,8499885,4,36725,0,05236896,4,36725,-0,2981002,0,3359423,5,203327E-06,4,36725,-0,9627832,4,36725,0,3142138,4,36725,-0,2457313
0,3364615,1,225299E-05,4,374,-0,8499885,4,374,0,05236896,4,374,-0,2981002,0,3364615,5,203327E-06,4,374,-0,9627832,4,374,0,306157,4,374,-0,2537881
0,3369808,1,174945E-05,4,38075,-0,8540169,4,38075,0,04834058,4,38075,-0,2940719,0,3369808,7,217517E-06,4,38075,-0,9627832,4,38075,0,306157,4,38075,-0,2457313
0,3375,1,05745E-05,4,3875,-0,8540169,4,3875,0,0443122,4,3875,-0,2981002,0,3375,7,049668E-06,4,3875,-0,9547265,4,3875,0,3101854,4,3875,-0,2497597
0,3380192,1,007095E-05,4,39425,-0,8540169,4,39425,0,04028382,4,39425,-0,3021286,0,3380192,8,224613E-06,4,39425,-0,9466697,4,39425,0,3101854,4,39425,-0,2376745
0,3385385,1,05745E-05,4,401,-0,8620737,4,401,0,0443122,4,401,-0,3021286,0,3385385,9,903106E-06,4,401,-0,9506981,4,401,0,306157,4,401,-0,2336462
0,3390577,1,05745E-05,4,40775,-0,866102,4,40775,0,04028382,4,40775,-0,3021286,0,3390577,1,208515E-05,4,40775,-0,9426414,4,40775,0,306157,4,40775,-0,2296178
0,3395769,9,903106E-06,4,4145,-0,866102,4,4145,0,0443122,4,4145,-0,306157,0,3395769,1,527428E-05,4,4145,-0,9466697,4,4145,0,2940719,4,4145,-0,2376745
0,3400961,1,040665E-05,4,42125,-0,8701304,4,42125,0,0443122,4,42125,-0,3021286,0,3400961,1,527428E-05,4,42125,-0,9506981,4,42125,0,2940719,4,42125,-0,2376745
0,3406154,1,107805E-05,4,428,-0,8741588,4,428,0,04834058,4,428,-0,306157,0,3406154,1,393149E-05,4,428,-0,9587549,4,428,0,3021286,4,428,-0,2376745
0,3411346,1,225299E-05,4,43475,-0,8701304,4,43475,0,05236896,4,43475,-0,2981002,0,3411346,1,426719E-05,4,43475,-0,9587549,4,43475,0,306157,4,43475,-0,2376745
0,3416539,1,326009E-05,4,4415,-0,866102,4,4415,0,04834058,4,4415,-0,3021286,0,3416539,1,326009E-05,4,4415,-0,9668117,4,4415,0,2981002,4,4415,-0,2417029
0,3421731,1,258869E-05,4,44825,-0,8580453,4,44825,0,05639734,4,44825,-0,2981002,0,3421731,1,12459E-05,4,44825,-0,97084,4,44825,0,3021286,4,44825,-0,2417029
0,3426923,1,242084E-05,4,455,-0,8580453,4,455,0,05639734,4,455,-0,2940719,0,3426923,1,141375E-05,4,455,-0,9748684,4,455,0,306157,4,455,-0,2376745
0,3432115,1,376364E-05,4,46175,-0,8540169,4,46175,0,05236896,4,46175,-0,3021286,0,3432115,1,09102E-05,4,46175,-0,9668117,4,46175,0,306157,4,46175,-0,2417029
0,3437308,1,443503E-05,4,4685,-0,8499885,4,4685,0,04834058,4,4685,-0,2981002,0,3437308,8,056764E-06,4,4685,-0,9668117,4,4685,0,3021286,4,4685,-0,2457313
0,34425,1,326009E-05,4,47525,-0,8580453,4,47525,0,05236896,4,47525,-0,3021286,0,34425,5,874724E-06,4,47525,-0,9547265,4,47525,0,306157,4,47525,-0,2417029
0,3447692,1,174945E-05,4,482,-0,8620737,4,482,0,0443122,4,482,-0,3021286,0,3447692,4,867628E-06,4,482,-0,9506981,4,482,0,306157,4,482,-0,2417029
0,3452885,1,05745E-05,4,48875,-0,866102,4,48875,0,04028382,4,48875,-0,2981002,0,3452885,4,36408E-06,4,48875,-0,9506981,4,48875,0,3101854,4,48875,-0,2417029
0,3458077,1,040665E-05,4,4955,-0,866102,4,4955,0,03625543,4,4955,-0,306157,0,3458077,5,035477E-06,4,4955,-0,9506981,4,4955,0,306157,4,4955,-0,2336462
0,3463269,1,05745E-05,4,50225,-0,8701304,4,50225,0,04028382,4,50225,-0,2981002,0,3463269,4,867628E-06,4,50225,-0,9506981,4,50225,0,3101854,4,50225,-0,2417029
0,3468462,1,141375E-05,4,509,-0,8701304,4,509,0,0443122,4,509,-0,2981002,0,3468462,4,36408E-06,4,509,-0,9506981,4,509,0,306157,4,509,-0,2336462
0,3473654,1,393149E-05,4,51575,-0,866102,4,51575,0,0443122,4,51575,-0,2900435,0,3473654,2,517739E-06,4,51575,-0,9466697,4,51575,0,3101854,4,51575,-0,2376745
0,3478846,1,493858E-05,4,5225,-0,8620737,4,5225,0,0443122,4,5225,-0,2860151,0,3478846,1,678492E-06,4,5225,-0,9506981,4,5225,0,2981002,4,5225,-0,2336462
0,3484038,1,309224E-05,4,52925,-0,8580453,4,52925,0,05236896,4,52925,-0,2860151,0,3484038,5,874724E-06,4,52925,-0,9547265,4,52925,0,306157,4,52925,-0,2457313
0,3489231,1,05745E-05,4,536,-0,8540169,4,536,0,04834058,4,536,-0,2900435,0,3489231,8,89601E-06,4,536,-0,9506981,4,536,0,306157,4,536,-0,2497597
0,3494423,1,05745E-05,4,54275,-0,8580453,4,54275,0,05236896,4,54275,-0,2981002,0,3494423,7,217517E-06,4,54275,-0,9466697,4,54275,0,306157,4,54275,-0,2457313
0,3499615,1,12459E-05,4,5495,-0,8540169,4,5495,0,04834058,4,5495,-0,3021286,0,3499615,6,378271E-06,4,5495,-0,9547265,4,5495,0,3101854,4,5495,-0,2417029
0,3504808,1,05745E-05,4,55625,-0,8499885,4,55625,0,0443122,4,55625,-0,3021286,0,3504808,6,54612E-06,4,55625,-0,9506981,4,55625,0,3182422,4,55625,-0,2497597
0,351,9,063859E-06,4,563,-0,8499885,4,563,0,0443122,4,563,-0,306157,0,351,9,231708E-06,4,563,-0,9547265,4,563,0,3222705,4,563,-0,2457313
0,3515192,8,224613E-06,4,56975,-0,8580453,4,56975,0,0443122,4,56975,-0,3021286,0,3515192,1,309224E-05,4,56975,-0,9506981,4,56975,0,3222705,4,56975,-0,2417029
0,3520385,1,09102E-05,4,5765,-0,8499885,4,5765,0,04028382,4,5765,-0,2981002,0,3520385,1,359579E-05,4,5765,-0,9547265,4,5765,0,3182422,4,5765,-0,2417029
0,3525577,1,19173E-05,4,58325,-0,8540169,4,58325,0,04834058,4,58325,-0,2981002,0,3525577,1,107805E-05,4,58325,-0,9547265,4,58325,0,3182422,4,58325,-0,2376745
0,3530769,1,007095E-05,4,59,-0,8540169,4,59,0,04834058,4,59,-0,2940719,0,3530769,7,217517E-06,4,59,-0,9587549,4,59,0,3101854,4,59,-0,2417029
0,3535962,1,107805E-05,4,59675,-0,8580453,4,59675,0,04834058,4,59675,-0,2981002,0,3535962,4,36408E-06,4,59675,-0,9547265,4,59675,0,3021286,4,59675,-0,2457313
0,3541154,1,426719E-05,4,6035,-0,8580453,4,6035,0,04834058,4,6035,-0,2981002,0,3541154,5,874724E-06,4,6035,-0,9587549,4,6035,0,2940719,4,6035,-0,2376745
0,3546346,1,359579E-05,4,61025,-0,8620737,4,61025,0,05236896,4,61025,-0,2940719,0,3546346,6,210422E-06,4,61025,-0,9627832,4,61025,0,2940719,4,61025,-0,2457313
0,3551539,1,007095E-05,4,617,-0,866102,4,617,0,04834058,4,617,-0,2981002,0,3551539,2,18204E-06,4,617,-0,9627832,4,617,0,2981002,4,617,-0,2457313
0,3556731,7,553216E-06,4,62375,-0,8620737,4,62375,0,04834058,4,62375,-0,3021286,0,3556731,3,356985E-07,4,62375,-0,9547265,4,62375,0,2940719,4,62375,-0,2457313
0,3561923,7,553216E-06,4,6305,-0,8580453,4,6305,0,05236896,4,6305,-0,3101854,0,3561923,1,510643E-06,4,6305,-0,9506981,4,6305,0,2940719,4,6305,-0,2417029
0,3567115,9,399557E-06,4,63725,-0,8580453,4,63725,0,05236896,4,63725,-0,306157,0,3567115,3,021286E-06,4,63725,-0,9547265,4,63725,0,2981002,4,63725,-0,2497597
0,3572308,1,15816E-05,4,644,-0,8540169,4,644,0,0443122,4,644,-0,306157,0,3572308,5,706875E-06,4,644,-0,9547265,4,644,0,2981002,4,644,-0,2537881
0,35775,1,326009E-05,4,65075,-0,8580453,4,65075,0,04028382,4,65075,-0,306157,0,35775,9,735257E-06,4,65075,-0,9466697,4,65075,0,3021286,4,65075,-0,2457313
0,3582692,1,359579E-05,4,6575,-0,8580453,4,6575,0,04028382,4,6575,-0,2981002,0,3582692,1,05745E-05,4,6575,-0,9506981,4,6575,0,3021286,4,6575,-0,2537881
0,3587885,1,292439E-05,4,66425,-0,8620737,4,66425,0,0443122,4,66425,-0,2981002,0,3587885,9,231708E-06,4,66425,-0,9506981,4,66425,0,3101854,4,66425,-0,2417029
0,3593077,1,15816E-05,4,671,-0,866102,4,671,0,04028382,4,671,-0,2940719,0,3593077,9,567407E-06,4,671,-0,9547265,4,671,0,2981002,4,671,-0,2417029
0,3598269,1,05745E-05,4,67775,-0,866102,4,67775,0,04028382,4,67775,-0,2940719,0,3598269,1,107805E-05,4,67775,-0,9587549,4,67775,0,3021286,4,67775,-0,2376745
0,3603462,1,007095E-05,4,6845,-0,8580453,4,6845,0,03625543,4,6845,-0,2900435,0,3603462,1,107805E-05,4,6845,-0,9668117,4,6845,0,3021286,4,6845,-0,2417029
0,3608654,9,231708E-06,4,69125,-0,8620737,4,69125,0,03625543,4,69125,-0,2860151,0,3608654,9,903106E-06,4,69125,-0,97084,4,69125,0,3021286,4,69125,-0,2376745
0,3613846,7,553216E-06,4,698,-0,8620737,4,698,0,04028382,4,698,-0,2900435,0,3613846,1,05745E-05,4,698,-0,9668117,4,698,0,3021286,4,698,-0,2376745
0,3619038,5,706875E-06,4,70475,-0,8580453,4,70475,0,04834058,4,70475,-0,3021286,0,3619038,9,231708E-06,4,70475,-0,9627832,4,70475,0,306157,4,70475,-0,2296178
0,3624231,7,049668E-06,4,7115,-0,8580453,4,7115,0,04834058,4,7115,-0,306157,0,3624231,6,378271E-06,4,7115,-0,9506981,4,7115,0,3021286,4,7115,-0,2376745
0,3629423,8,560311E-06,4,71825,-0,8540169,4,71825,0,05236896,4,71825,-0,3101854,0,3629423,4,531929E-06,4,71825,-0,9506981,4,71825,0,306157,4,71825,-0,2417029
0,3634616,7,888914E-06,4,725,-0,8580453,4,725,0,05236896,4,725,-0,306157,0,3634616,6,210422E-06,4,725,-0,9426414,4,725,0,3021286,4,725,-0,2457313
0,3639808,6,54612E-06,4,73175,-0,866102,4,73175,0,05236896,4,73175,-0,3101854,0,3639808,9,231708E-06,4,73175,-0,9386129,4,73175,0,3021286,4,73175,-0,2497597
0,3645,6,54612E-06,4,7385,-0,866102,4,7385,0,05236896,4,7385,-0,3101854,0,3645,9,231708E-06,4,7385,-0,9426414,4,7385,0,2981002,4,7385,-0,2537881
0,3650192,7,385367E-06,4,74525,-0,8741588,4,74525,0,0443122,4,74525,-0,3021286,0,3650192,7,217517E-06,4,74525,-0,9345846,4,74525,0,3021286,4,74525,-0,2417029
0,3655385,7,721065E-06,4,752,-0,866102,4,752,0,04028382,4,752,-0,306157,0,3655385,5,874724E-06,4,752,-0,9466697,4,752,0,306157,4,752,-0,2497597
0,3660577,7,049668E-06,4,75875,-0,866102,4,75875,0,04028382,4,75875,-0,2981002,0,3660577,6,042573E-06,4,75875,-0,9506981,4,75875,0,306157,4,75875,-0,2457313
0,3665769,6,210422E-06,4,7655,-0,8620737,4,7655,0,0443122,4,7655,-0,3021286,0,3665769,6,71397E-06,4,7655,-0,9547265,4,7655,0,3142138,4,7655,-0,2457313
0,3670962,5,874724E-06,4,77225,-0,866102,4,77225,0,0443122,4,77225,-0,2981002,0,3670962,7,217517E-06,4,77225,-0,9668117,4,77225,0,3142138,4,77225,-0,2417029
0,3676154,6,881819E-06,4,779,-0,8701304,4,779,0,0443122,4,779,-0,306157,0,3676154,9,231708E-06,4,779,-0,97084,4,779,0,3262989,4,779,-0,2457313
0,3681346,1,02388E-05,4,78575,-0,8701304,4,78575,0,04028382,4,78575,-0,3021286,0,3681346,1,19173E-05,4,78575,-0,9788967,4,78575,0,3262989,4,78575,-0,2457313
0,3686539,1,326009E-05,4,7925,-0,8781872,4,7925,0,04028382,4,7925,-0,3101854,0,3686539,1,292439E-05,4,7925,-0,9748684,4,7925,0,3303273,4,7925,-0,2417029
0,3691731,1,359579E-05,4,79925,-0,8741588,4,79925,0,0443122,4,79925,-0,3021286,0,3691731,1,242084E-05,4,79925,-0,9748684,4,79925,0,3222705,4,79925,-0,2417029
0,3696923,1,326009E-05,4,806,-0,866102,4,806,0,0443122,4,806,-0,3101854,0,3696923,1,326009E-05,4,806,-0,9668117,4,806,0,3101854,4,806,-0,2376745
0,3702115,1,426719E-05,4,81275,-0,8580453,4,81275,0,04834058,4,81275,-0,3021286,0,3702115,1,460288E-05,4,81275,-0,9627832,4,81275,0,3021286,4,81275,-0,2336462
0,3707308,1,560998E-05,4,8195,-0,8580453,4,8195,0,04834058,4,8195,-0,2940719,0,3707308,1,359579E-05,4,8195,-0,9506981,4,8195,0,2900435,4,8195,-0,2417029
0,37125,1,628138E-05,4,82625,-0,8580453,4,82625,0,04834058,4,82625,-0,2981002,0,37125,1,12459E-05,4,82625,-0,9547265,4,82625,0,2860151,4,82625,-0,2497597
0,3717692,1,644923E-05,4,833,-0,8580453,4,833,0,0443122,4,833,-0,2981002,0,3717692,8,89601E-06,4,833,-0,9466697,4,833,0,2900435,4,833,-0,2497597
0,3722885,1,493858E-05,4,83975,-0,8701304,4,83975,0,04028382,4,83975,-0,2981002,0,3722885,7,217517E-06,4,83975,-0,9426414,4,83975,0,2900435,4,83975,-0,2497597
0,3728077,1,326009E-05,4,8465,-0,8620737,4,8465,0,03222705,4,8465,-0,306157,0,3728077,5,706875E-06,4,8465,-0,9547265,4,8465,0,2940719,4,8465,-0,2537881
0,3733269,1,326009E-05,4,85325,-0,8701304,4,85325,0,03222705,4,85325,-0,3101854,0,3733269,3,860533E-06,4,85325,-0,9668117,4,85325,0,3021286,4,85325,-0,2578164
0,3738461,1,493858E-05,4,86,-0,8620737,4,86,0,02819867,4,86,-0,306157,0,3738461,4,531929E-06,4,86,-0,97084,4,86,0,2981002,4,86,-0,2497597
0,3743654,1,560998E-05,4,86675,-0,8580453,4,86675,0,02819867,4,86675,-0,3101854,0,3743654,5,035477E-06,4,86675,-0,9668117,4,86675,0,3021286,4,86675,-0,2497597
0,3748846,1,493858E-05,4,8735,-0,8580453,4,8735,0,03222705,4,8735,-0,306157,0,3748846,4,36408E-06,4,8735,-0,9668117,4,8735,0,3021286,4,8735,-0,2497597
0,3754039,1,242084E-05,4,88025,-0,8580453,4,88025,0,03625543,4,88025,-0,306157,0,3754039,4,867628E-06,4,88025,-0,9627832,4,88025,0,306157,4,88025,-0,2457313
0,3759231,1,15816E-05,4,887,-0,8580453,4,887,0,04028382,4,887,-0,306157,0,3759231,4,196231E-06,4,887,-0,9587549,4,887,0,3101854,4,887,-0,2497597
0,3764423,1,359579E-05,4,89375,-0,8540169,4,89375,0,04834058,4,89375,-0,3021286,0,3764423,4,196231E-06,4,89375,-0,9506981,4,89375,0,3101854,4,89375,-0,2497597
0,3769615,1,359579E-05,4,9005,-0,8540169,4,9005,0,0443122,4,9005,-0,306157,0,3769615,3,692683E-06,4,9005,-0,9426414,4,9005,0,3101854,4,9005,-0,2537881
0,3774808,1,225299E-05,4,90725,-0,8499885,4,90725,0,0443122,4,90725,-0,3021286,0,3774808,1,510643E-06,4,90725,-0,9386129,4,90725,0,3101854,4,90725,-0,2457313
0,378,1,174945E-05,4,914,-0,8499885,4,914,0,05236896,4,914,-0,3021286,0,378,1,678492E-06,4,914,-0,9265279,4,914,0,306157,4,914,-0,2537881
0,3785192,1,12459E-05,4,92075,-0,8499885,4,92075,0,05236896,4,92075,-0,3021286,0,3785192,3,021286E-06,4,92075,-0,9305562,4,92075,0,3101854,4,92075,-0,2497597
0,3790385,1,09102E-05,4,9275,-0,8540169,4,9275,0,04834058,4,9275,-0,3021286,0,3790385,4,531929E-06,4,9275,-0,9426414,4,9275,0,3182422,4,9275,-0,2497597
0,3795577,1,05745E-05,4,93425,-0,8540169,4,93425,0,0443122,4,93425,-0,3101854,0,3795577,6,210422E-06,4,93425,-0,9426414,4,93425,0,3142138,4,93425,-0,2497597
0,3800769,1,05745E-05,4,941,-0,8499885,4,941,0,04834058,4,941,-0,3101854,0,3800769,6,71397E-06,4,941,-0,9466697,4,941,0,3142138,4,941,-0,2537881
0,3805962,1,242084E-05,4,94775,-0,8499885,4,94775,0,04834058,4,94775,-0,306157,0,3805962,3,524834E-06,4,94775,-0,9547265,4,94775,0,3182422,4,94775,-0,2417029
0,3811154,1,359579E-05,4,9545,-0,8499885,4,9545,0,05639734,4,9545,-0,3021286,0,3811154,2,517739E-06,4,9545,-0,9547265,4,9545,0,3101854,4,9545,-0,2457313
0,3816346,1,326009E-05,4,96125,-0,8580453,4,96125,0,04834058,4,96125,-0,3021286,0,3816346,5,203327E-06,4,96125,-0,9627832,4,96125,0,3142138,4,96125,-0,2376745
0,3821538,1,225299E-05,4,968,-0,8620737,4,968,0,05236896,4,968,-0,306157,0,3821538,7,888914E-06,4,968,-0,9587549,4,968,0,3101854,4,968,-0,2497597
0,3826731,1,02388E-05,4,97475,-0,866102,4,97475,0,04834058,4,97475,-0,3021286,0,3826731,9,903106E-06,4,97475,-0,9627832,4,97475,0,3021286,4,97475,-0,2417029
0,3831923,9,231708E-06,4,9815,-0,866102,4,9815,0,05236896,4,9815,-0,306157,0,3831923,1,02388E-05,4,9815,-0,9547265,4,9815,0,2981002,4,9815,-0,2417029
0,3837115,1,05745E-05,4,98825,-0,866102,4,98825,0,04834058,4,98825,-0,306157,0,3837115,9,063859E-06,4,98825,-0,9627832,4,98825,0,3021286,4,98825,-0,2417029
0,3842308,1,12459E-05,4,995,-0,866102,4,995,0,04028382,4,995,-0,3021286,0,3842308,7,385367E-06,4,995,-0,9668117,4,995,0,2940719,4,995,-0,2457313
0,38475,1,107805E-05,5,00175,-0,8701304,5,00175,0,03625543,5,00175,-0,2981002,0,38475,8,392462E-06,5,00175,-0,9668117,5,00175,0,2981002,5,00175,-0,2457313
0,3852692,1,02388E-05,5,0085,-0,866102,5,0085,0,03625543,5,0085,-0,2981002,0,3852692,9,399557E-06,5,0085,-0,9668117,5,0085,0,2981002,5,0085,-0,2497597
0,3857885,1,040665E-05,5,01525,-0,8741588,5,01525,0,03625543,5,01525,-0,306157,0,3857885,1,007095E-05,5,01525,-0,97084,5,01525,0,2981002,5,01525,-0,2457313
0,3863077,1,05745E-05,5,022,-0,8701304,5,022,0,04028382,5,022,-0,3101854,0,3863077,1,275654E-05,5,022,-0,9668117,5,022,0,2981002,5,022,-0,2537881
0,3868269,1,19173E-05,5,02875,-0,866102,5,02875,0,04028382,5,02875,-0,3101854,0,3868269,1,292439E-05,5,02875,-0,9627832,5,02875,0,2981002,5,02875,-0,2537881
0,3873461,1,15816E-05,5,0355,-0,866102,5,0355,0,03625543,5,0355,-0,306157,0,3873461,1,292439E-05,5,0355,-0,9547265,5,0355,0,3021286,5,0355,-0,2457313
0,3878654,9,567407E-06,5,04225,-0,866102,5,04225,0,04028382,5,04225,-0,3021286,0,3878654,1,309224E-05,5,04225,-0,9466697,5,04225,0,2981002,5,04225,-0,2537881
0,3883846,7,385367E-06,5,049,-0,8580453,5,049,0,0443122,5,049,-0,2981002,0,3883846,1,460288E-05,5,049,-0,9506981,5,049,0,2981002,5,049,-0,2457313
0,3889039,6,042573E-06,5,05575,-0,8540169,5,05575,0,0443122,5,05575,-0,2981002,0,3889039,1,594568E-05,5,05575,-0,9426414,5,05575,0,2981002,5,05575,-0,2537881
0,3894231,6,881819E-06,5,0625,-0,8580453,5,0625,0,04834058,5,0625,-0,2981002,0,3894231,1,376364E-05,5,0625,-0,9506981,5,0625,0,3101854,5,0625,-0,2457313
0,3899423,9,231708E-06,5,06925,-0,8580453,5,06925,0,04028382,5,06925,-0,3021286,0,3899423,1,208515E-05,5,06925,-0,9466697,5,06925,0,3101854,5,06925,-0,2457313
0,3904615,1,141375E-05,5,076,-0,8620737,5,076,0,03625543,5,076,-0,3021286,0,3904615,1,242084E-05,5,076,-0,9547265,5,076,0,3142138,5,076,-0,2537881
0,3909808,1,309224E-05,5,08275,-0,8620737,5,08275,0,04028382,5,08275,-0,306157,0,3909808,1,19173E-05,5,08275,-0,9627832,5,08275,0,3142138,5,08275,-0,2537881
0,3915,1,409934E-05,5,0895,-0,8580453,5,0895,0,03625543,5,0895,-0,306157,0,3915,1,292439E-05,5,0895,-0,9627832,5,0895,0,3142138,5,0895,-0,2497597
0,3920192,1,426719E-05,5,09625,-0,8620737,5,09625,0,0443122,5,09625,-0,3101854,0,3920192,1,225299E-05,5,09625,-0,9627832,5,09625,0,3222705,5,09625,-0,2497597
0,3925385,1,460288E-05,5,103,-0,8620737,5,103,0,04834058,5,103,-0,3101854,0,3925385,1,05745E-05,5,103,-0,9587549,5,103,0,3142138,5,103,-0,2417029
0,3930577,1,326009E-05,5,10975,-0,866102,5,10975,0,05236896,5,10975,-0,3101854,0,3930577,1,040665E-05,5,10975,-0,9668117,5,10975,0,3142138,5,10975,-0,2457313
0,3935769,1,05745E-05,5,1165,-0,8620737,5,1165,0,05639734,5,1165,-0,306157,0,3935769,9,231708E-06,5,1165,-0,9547265,5,1165,0,3021286,5,1165,-0,2417029
0,3940962,9,567407E-06,5,12325,-0,8620737,5,12325,0,05639734,5,12325,-0,2981002,0,3940962,9,231708E-06,5,12325,-0,9547265,5,12325,0,306157,5,12325,-0,2417029
0,3946154,1,05745E-05,5,13,-0,8580453,5,13,0,06042573,5,13,-0,2981002,0,3946154,7,721065E-06,5,13,-0,9466697,5,13,0,3021286,5,13,-0,2417029
0,3951346,1,05745E-05,5,13675,-0,8540169,5,13675,0,05639734,5,13675,-0,3021286,0,3951346,5,539025E-06,5,13675,-0,9506981,5,13675,0,2981002,5,13675,-0,2457313
0,3956538,8,224613E-06,5,1435,-0,8499885,5,1435,0,06042573,5,1435,-0,2981002,0,3956538,5,035477E-06,5,1435,-0,9466697,5,1435,0,2981002,5,1435,-0,2457313
0,3961731,5,539025E-06,5,15025,-0,8540169,5,15025,0,06042573,5,15025,-0,306157,0,3961731,6,378271E-06,5,15025,-0,9466697,5,15025,0,2940719,5,15025,-0,2497597
0,3966923,5,371176E-06,5,157,-0,8540169,5,157,0,05236896,5,157,-0,306157,0,3966923,5,203327E-06,5,157,-0,9466697,5,157,0,2981002,5,157,-0,2457313
0,3972116,8,224613E-06,5,16375,-0,8540169,5,16375,0,04834058,5,16375,-0,3142138,0,3972116,2,685588E-06,5,16375,-0,9506981,5,16375,0,2940719,5,16375,-0,2578164
0,3977308,9,735257E-06,5,1705,-0,8540169,5,1705,0,04834058,5,1705,-0,3182422,0,3977308,2,349889E-06,5,1705,-0,9506981,5,1705,0,3021286,5,1705,-0,2578164
0,39825,9,063859E-06,5,17725,-0,866102,5,17725,0,04834058,5,17725,-0,3182422,0,39825,2,517739E-06,5,17725,-0,9547265,5,17725,0,306157,5,17725,-0,2537881
0,3987692,6,881819E-06,5,184,-0,866102,5,184,0,0443122,5,184,-0,3222705,0,3987692,5,203327E-06,5,184,-0,9587549,5,184,0,3021286,5,184,-0,2497597
0,3992885,6,54612E-06,5,19075,-0,8620737,5,19075,0,04028382,5,19075,-0,3182422,0,3992885,9,567407E-06,5,19075,-0,9547265,5,19075,0,3021286,5,19075,-0,2578164
0,3998077,7,888914E-06,5,1975,-0,866102,5,1975,0,0443122,5,1975,-0,3142138,0,3998077,9,231708E-06,5,1975,-0,9627832,5,1975,0,2940719,5,1975,-0,2497597
0,4003269,9,735257E-06,5,20425,-0,8580453,5,20425,0,04834058,5,20425,-0,3101854,0,4003269,4,531929E-06,5,20425,-0,9547265,5,20425,0,2981002,5,20425,-0,2497597
0,4008462,1,040665E-05,5,211,-0,8620737,5,211,0,0443122,5,211,-0,306157,0,4008462,2,014191E-06,5,211,-0,9627832,5,211,0,2981002,5,211,-0,2537881
0,4013654,1,05745E-05,5,21775,-0,8580453,5,21775,0,05236896,5,21775,-0,2940719,0,4013654,5,035477E-06,5,21775,-0,9587549,5,21775,0,2940719,5,21775,-0,2537881
0,4018846,9,903106E-06,5,2245,-0,8540169,5,2245,0,05639734,5,2245,-0,3021286,0,4018846,6,378271E-06,5,2245,-0,9627832,5,2245,0,2860151,5,2245,-0,2497597
0,4024039,7,888914E-06,5,23125,-0,8459601,5,23125,0,05236896,5,23125,-0,306157,0,4024039,5,539025E-06,5,23125,-0,9547265,5,23125,0,2860151,5,23125,-0,2497597
0,4029231,7,888914E-06,5,238,-0,8459601,5,238,0,05236896,5,238,-0,306157,0,4029231,5,706875E-06,5,238,-0,9587549,5,238,0,2900435,5,238,-0,2497597
0,4034423,1,225299E-05,5,24475,-0,8540169,5,24475,0,05236896,5,24475,-0,3142138,0,4034423,8,224613E-06,5,24475,-0,9587549,5,24475,0,2940719,5,24475,-0,2457313
0,4039615,1,577783E-05,5,2515,-0,8620737,5,2515,0,0443122,5,2515,-0,3101854,0,4039615,1,02388E-05,5,2515,-0,9587549,5,2515,0,306157,5,2515,-0,2457313
0,4044808,1,527428E-05,5,25825,-0,8701304,5,25825,0,04834058,5,25825,-0,3101854,0,4044808,1,05745E-05,5,25825,-0,9627832,5,25825,0,3021286,5,25825,-0,2417029
0,405,1,359579E-05,5,265,-0,8701304,5,265,0,0443122,5,265,-0,3142138,0,405,9,567407E-06,5,265,-0,9668117,5,265,0,3021286,5,265,-0,2376745
0,4055192,1,19173E-05,5,27175,-0,8741588,5,27175,0,04834058,5,27175,-0,3101854,0,4055192,1,007095E-05,5,27175,-0,9627832,5,27175,0,306157,5,27175,-0,2376745
0,4060385,1,242084E-05,5,2785,-0,8781872,5,2785,0,0443122,5,2785,-0,306157,0,4060385,1,15816E-05,5,2785,-0,9627832,5,2785,0,2981002,5,2785,-0,2497597
0,4065577,1,292439E-05,5,28525,-0,8741588,5,28525,0,04028382,5,28525,-0,3021286,0,4065577,1,19173E-05,5,28525,-0,9627832,5,28525,0,3021286,5,28525,-0,2457313
0,4070769,1,326009E-05,5,292,-0,8620737,5,292,0,0443122,5,292,-0,3021286,0,4070769,1,107805E-05,5,292,-0,9627832,5,292,0,2981002,5,292,-0,2497597
0,4075962,1,309224E-05,5,29875,-0,8580453,5,29875,0,04028382,5,29875,-0,2940719,0,4075962,8,560311E-06,5,29875,-0,9587549,5,29875,0,2981002,5,29875,-0,2497597
0,4081154,1,05745E-05,5,3055,-0,8620737,5,3055,0,04028382,5,3055,-0,306157,0,4081154,5,539025E-06,5,3055,-0,9547265,5,3055,0,2940719,5,3055,-0,2578164
0,4086346,9,399557E-06,5,31225,-0,8540169,5,31225,0,0443122,5,31225,-0,3021286,0,4086346,3,860533E-06,5,31225,-0,9587549,5,31225,0,2940719,5,31225,-0,2618448
0,4091538,9,567407E-06,5,319,-0,8540169,5,319,0,04028382,5,319,-0,306157,0,4091538,4,699778E-06,5,319,-0,9587549,5,319,0,2940719,5,319,-0,2618448
0,4096731,8,560311E-06,5,32575,-0,8459601,5,32575,0,0443122,5,32575,-0,3101854,0,4096731,8,560311E-06,5,32575,-0,9506981,5,32575,0,3021286,5,32575,-0,2578164
0,4101923,8,224613E-06,5,3325,-0,8459601,5,3325,0,04834058,5,3325,-0,3182422,0,4101923,9,735257E-06,5,3325,-0,9466697,5,3325,0,3021286,5,3325,-0,2537881
