Label: R BICEPS BRACHII: EMG 1 Sampling frequency: 1,925926e+003 Number of points: 58682 start: 0,000000e+000 Unit: Volts Domain Unit: s
Label: R BICEPS BRACHII: Acc 1.X Sampling frequency: 1,481481e+002 Number of points: 4514 start: 0,000000e+000 Unit: g Domain Unit: s
Label: R BICEPS BRACHII: Acc 1.Y Sampling frequency: 1,481481e+002 Number of points: 4514 start: 0,000000e+000 Unit: g Domain Unit: s
Label: R BICEPS BRACHII: Acc 1.Z Sampling frequency: 1,481481e+002 Number of points: 4514 start: 0,000000e+000 Unit: g Domain Unit: s
Label: R TRICEPS BRACHII: EMG 2 Sampling frequency: 1,925926e+003 Number of points: 58682 start: 0,000000e+000 Unit: Volts Domain Unit: s
Label: R TRICEPS BRACHII: Acc 2.X Sampling frequency: 1,481481e+002 Number of points: 4514 start: 0,000000e+000 Unit: g Domain Unit: s
Label: R TRICEPS BRACHII: Acc 2.Y Sampling frequency: 1,481481e+002 Number of points: 4514 start: 0,000000e+000 Unit: g Domain Unit: s
Label: R TRICEPS BRACHII: Acc 2.Z Sampling frequency: 1,481481e+002 Number of points: 4514 start: 0,000000e+000 Unit: g Domain Unit: s
Start Trigger Method: None
Stop Trigger Method: None
 
X[s],"R BICEPS BRACHII: EMG 1",X[s],"R BICEPS BRACHII: Acc 1.X",X[s],"R BICEPS BRACHII: Acc 1.Y",X[s],"R BICEPS BRACHII: Acc 1.Z",X[s],"R TRICEPS BRACHII: EMG 2",X[s],"R TRICEPS BRACHII: Acc 2.X",X[s],"R TRICEPS BRACHII: Acc 2.Y",X[s],"R TRICEPS BRACHII: Acc 2.Z"
0.000000,0,0.000000,0,0.000000,0,0.000000,0,0.000000,0,0.000000,0,0.000000,0,0.000000,0
0,0005192308,0,0,00675,0,0,00675,0,0,00675,0,0,0005192308,0,0,00675,0,0,00675,0,0,00675,0
0,001038462,0,0,0135,0,0,0135,0,0,0135,0,0,001038462,0,0,0135,0,0,0135,0,0,0135,0
0,001557692,0,0,02025,0,0,02025,0,0,02025,0,0,001557692,0,0,02025,0,0,02025,0,0,02025,0
0,002076923,0,0,027,0,0,027,0,0,027,0,0,002076923,0,0,027,0,0,027,0,0,027,0
0,002596154,0,0,03375,0,0,03375,0,0,03375,0,0,002596154,0,0,03375,0,0,03375,0,0,03375,0
0,003115385,0,0,0405,-0,833875,0,0405,0,1248798,0,0405,-0,2578164,0,003115385,0,0,0405,-0,9184711,0,0405,0,2618448,0,0405,-0,1289082
0,003634615,0,0,04725,-0,8419318,0,04725,0,1329366,0,04725,-0,2537881,0,003634615,0,0,04725,-0,9224994,0,04725,0,2779583,0,04725,-0,1329366
0,004153846,0,0,054,-0,8499885,0,054,0,1168231,0,054,-0,2457313,0,004153846,0,0,054,-0,9224994,0,054,0,2940719,0,054,-0,1248798
0,004673077,0,0,06075,-0,8499885,0,06075,0,1168231,0,06075,-0,2296178,0,004673077,0,0,06075,-0,9265279,0,06075,0,2981002,0,06075,-0,1289082
0,005192308,0,0,0675,-0,8419318,0,0675,0,1168231,0,0675,-0,2296178,0,005192308,0,0,0675,-0,9305562,0,0675,0,306157,0,0675,-0,1329366
0,005711539,0,0,07425,-0,833875,0,07425,0,1127947,0,07425,-0,2255894,0,005711539,0,0,07425,-0,9426414,0,07425,0,306157,0,07425,-0,1248798
0,006230769,0,0,081,-0,833875,0,081,0,1007095,0,081,-0,2255894,0,006230769,0,0,081,-0,9426414,0,081,0,306157,0,081,-0,1248798
0,00675,0,0,08775,-0,8258182,0,08775,0,1087663,0,08775,-0,2336462,0,00675,0,0,08775,-0,9386129,0,08775,0,306157,0,08775,-0,1208515
0,007269231,0,0,0945,-0,8419318,0,0945,0,1087663,0,0945,-0,2417029,0,007269231,0,0,0945,-0,9386129,0,0945,0,3101854,0,0945,-0,1168231
0,007788462,0,0,10125,-0,8499885,0,10125,0,1168231,0,10125,-0,2497597,0,007788462,0,0,10125,-0,9305562,0,10125,0,3021286,0,10125,-0,1127947
0,008307693,0,0,108,-0,8580453,0,108,0,1208515,0,108,-0,2578164,0,008307693,0,0,108,-0,9224994,0,108,0,3021286,0,108,-0,1087663
0,008826924,0,0,11475,-0,8580453,0,11475,0,1248798,0,11475,-0,2457313,0,008826924,0,0,11475,-0,9144427,0,11475,0,3101854,0,11475,-0,1047379
0,009346154,0,0,1215,-0,866102,0,1215,0,1248798,0,1215,-0,2578164,0,009346154,0,0,1215,-0,9144427,0,1215,0,3021286,0,1215,-0,1087663
0,009865385,0,0,12825,-0,8540169,0,12825,0,1248798,0,12825,-0,2457313,0,009865385,0,0,12825,-0,9063858,0,12825,0,2981002,0,12825,-0,1007095
0,01038462,0,0,135,-0,8459601,0,135,0,1248798,0,135,-0,2417029,0,01038462,0,0,135,-0,9184711,0,135,0,2900435,0,135,-0,1127947
0,01090385,0,0,14175,-0,8419318,0,14175,0,1289082,0,14175,-0,2417029,0,01090385,0,0,14175,-0,9224994,0,14175,0,2819867,0,14175,-0,1248798
0,01142308,0,0,1485,-0,8379034,0,1485,0,1248798,0,1485,-0,2497597,0,01142308,0,0,1485,-0,9386129,0,1485,0,2779583,0,1485,-0,1289082
0,01194231,0,0,15525,-0,833875,0,15525,0,1248798,0,15525,-0,2578164,0,01194231,0,0,15525,-0,9426414,0,15525,0,2779583,0,15525,-0,1289082
0,01246154,0,0,162,-0,8258182,0,162,0,1289082,0,162,-0,27393,0,01246154,0,0,162,-0,9466697,0,162,0,2658732,0,162,-0,136965
0,01298077,0,0,16875,-0,833875,0,16875,0,1289082,0,16875,-0,2860151,0,01298077,0,0,16875,-0,9426414,0,16875,0,2537881,0,16875,-0,136965
0,0135,0,0,1755,-0,8379034,0,1755,0,1329366,0,1755,-0,2940719,0,0135,0,0,1755,-0,9466697,0,1755,0,2497597,0,1755,-0,1289082
0,01401923,0,0,18225,-0,8459601,0,18225,0,1490501,0,18225,-0,2940719,0,01401923,0,0,18225,-0,9547265,0,18225,0,2417029,0,18225,-0,136965
0,01453846,0,0,189,-0,8499885,0,189,0,1530785,0,189,-0,2981002,0,01453846,0,0,189,-0,9587549,0,189,0,2457313,0,189,-0,136965
0,01505769,0,0,19575,-0,866102,0,19575,0,1571069,0,19575,-0,2900435,0,01505769,0,0,19575,-0,9587549,0,19575,0,2537881,0,19575,-0,136965
0,01557692,0,0,2025,-0,8701304,0,2025,0,1450217,0,2025,-0,2819867,0,01557692,0,0,2025,-0,97084,0,2025,0,2578164,0,2025,-0,136965
0,01609615,0,0,20925,-0,8701304,0,20925,0,136965,0,20925,-0,2819867,0,01609615,0,0,20925,-0,9668117,0,20925,0,2578164,0,20925,-0,1409934
0,01661539,0,0,216,-0,8620737,0,216,0,1289082,0,216,-0,2779583,0,01661539,0,0,216,-0,9668117,0,216,0,2658732,0,216,-0,136965
0,01713462,0,0,22275,-0,8459601,0,22275,0,1248798,0,22275,-0,27393,0,01713462,0,0,22275,-0,9627832,0,22275,0,2699016,0,22275,-0,1409934
0,01765385,0,0,2295,-0,8379034,0,2295,0,1168231,0,2295,-0,2779583,0,01765385,0,0,2295,-0,9547265,0,2295,0,27393,0,2295,-0,1329366
0,01817308,0,0,23625,-0,8298466,0,23625,0,1248798,0,23625,-0,27393,0,01817308,0,0,23625,-0,9386129,0,23625,0,2699016,0,23625,-0,1409934
0,01869231,0,0,243,-0,8298466,0,243,0,1208515,0,243,-0,2779583,0,01869231,0,0,243,-0,9224994,0,243,0,2658732,0,243,-0,1329366
0,01921154,0,0,24975,-0,8419318,0,24975,0,1248798,0,24975,-0,27393,0,01921154,0,0,24975,-0,9144427,0,24975,0,2658732,0,24975,-0,1289082
0,01973077,0,0,2565,-0,8459601,0,2565,0,1289082,0,2565,-0,2779583,0,01973077,0,0,2565,-0,9063858,0,2565,0,2578164,0,2565,-0,1289082
0,02025,0,0,26325,-0,8459601,0,26325,0,136965,0,26325,-0,2779583,0,02025,0,0,26325,-0,9063858,0,26325,0,2658732,0,26325,-0,1289082
0,02076923,0,0,27,-0,8459601,0,27,0,1289082,0,27,-0,2819867,0,02076923,0,0,27,-0,9144427,0,27,0,2819867,0,27,-0,1289082
0,02128846,0,0,27675,-0,8499885,0,27675,0,136965,0,27675,-0,2779583,0,02128846,0,0,27675,-0,9265279,0,27675,0,2819867,0,27675,-0,1329366
0,02180769,0,0,2835,-0,8379034,0,2835,0,1329366,0,2835,-0,2779583,0,02180769,0,0,2835,-0,9386129,0,2835,0,2819867,0,2835,-0,1329366
0,02232692,0,0,29025,-0,8379034,0,29025,0,1289082,0,29025,-0,27393,0,02232692,0,0,29025,-0,9466697,0,29025,0,2819867,0,29025,-0,1450217
0,02284615,0,0,297,-0,833875,0,297,0,1248798,0,297,-0,27393,0,02284615,0,0,297,-0,9587549,0,297,0,2860151,0,297,-0,1530785
0,02336538,0,0,30375,-0,8379034,0,30375,0,1208515,0,30375,-0,2699016,0,02336538,0,0,30375,-0,9587549,0,30375,0,2819867,0,30375,-0,1490501
0,02388461,0,0,3105,-0,8379034,0,3105,0,1168231,0,3105,-0,27393,0,02388461,0,0,3105,-0,9587549,0,3105,0,2900435,0,3105,-0,1490501
0,02440385,0,0,31725,-0,8419318,0,31725,0,1168231,0,31725,-0,2699016,0,02440385,0,0,31725,-0,9506981,0,31725,0,2900435,0,31725,-0,1490501
0,02492308,0,0,324,-0,8540169,0,324,0,1208515,0,324,-0,2618448,0,02492308,0,0,324,-0,9466697,0,324,0,2900435,0,324,-0,1450217
0,02544231,0,0,33075,-0,866102,0,33075,0,1248798,0,33075,-0,2578164,0,02544231,0,0,33075,-0,9386129,0,33075,0,2940719,0,33075,-0,1409934
0,02596154,0,0,3375,-0,8741588,0,3375,0,1289082,0,3375,-0,2497597,0,02596154,0,0,3375,-0,9547265,0,3375,0,2981002,0,3375,-0,136965
0,02648077,0,0,34425,-0,8741588,0,34425,0,1248798,0,34425,-0,2417029,0,02648077,0,0,34425,-0,9466697,0,34425,0,3021286,0,34425,-0,1329366
0,027,0,0,351,-0,8701304,0,351,0,1248798,0,351,-0,2376745,0,027,0,0,351,-0,9466697,0,351,0,3021286,0,351,-0,1248798
0,02751923,0,0,35775,-0,866102,0,35775,0,1248798,0,35775,-0,2336462,0,02751923,0,0,35775,-0,9466697,0,35775,0,3021286,0,35775,-0,1289082
0,02803846,0,0,3645,-0,8499885,0,3645,0,1208515,0,3645,-0,2376745,0,02803846,0,0,3645,-0,9506981,0,3645,0,2900435,0,3645,-0,1329366
0,02855769,0,0,37125,-0,8419318,0,37125,0,1248798,0,37125,-0,2417029,0,02855769,0,0,37125,-0,9506981,0,37125,0,2779583,0,37125,-0,1289082
0,02907692,0,0,378,-0,8419318,0,378,0,1168231,0,378,-0,2497597,0,02907692,0,0,378,-0,9587549,0,378,0,2699016,0,378,-0,1329366
0,02959615,0,0,38475,-0,8459601,0,38475,0,1127947,0,38475,-0,2578164,0,02959615,0,0,38475,-0,9547265,0,38475,0,2699016,0,38475,-0,1248798
0,03011538,0,0,3915,-0,8499885,0,3915,0,1127947,0,3915,-0,2699016,0,03011538,0,0,3915,-0,9506981,0,3915,0,2658732,0,3915,-0,1289082
0,03063462,0,0,39825,-0,8580453,0,39825,0,1168231,0,39825,-0,2699016,0,03063462,0,0,39825,-0,9466697,0,39825,0,2658732,0,39825,-0,1329366
0,03115385,0,0,405,-0,8620737,0,405,0,1087663,0,405,-0,2699016,0,03115385,0,0,405,-0,9466697,0,405,0,2658732,0,405,-0,1409934
0,03167308,0,0,41175,-0,866102,0,41175,0,1127947,0,41175,-0,2658732,0,03167308,0,0,41175,-0,9386129,0,41175,0,27393,0,41175,-0,1450217
0,03219231,0,0,4185,-0,8620737,0,4185,0,1168231,0,4185,-0,2658732,0,03219231,0,0,4185,-0,9345846,0,4185,0,27393,0,4185,-0,1450217
0,03271154,0,0,42525,-0,8580453,0,42525,0,1168231,0,42525,-0,27393,0,03271154,0,0,42525,-0,9345846,0,42525,0,2819867,0,42525,-0,1530785
0,03323077,0,0,432,-0,8540169,0,432,0,1168231,0,432,-0,27393,0,03323077,0,0,432,-0,9426414,0,432,0,2779583,0,432,-0,1571069
0,03375,0,0,43875,-0,8540169,0,43875,0,1208515,0,43875,-0,27393,0,03375,0,0,43875,-0,9386129,0,43875,0,2900435,0,43875,-0,1450217
0,03426923,0,0,4455,-0,8499885,0,4455,0,1208515,0,4455,-0,2658732,0,03426923,0,0,4455,-0,9426414,0,4455,0,2819867,0,4455,-0,1571069
0,03478846,0,0,45225,-0,8459601,0,45225,0,1208515,0,45225,-0,27393,0,03478846,0,0,45225,-0,9466697,0,45225,0,2819867,0,45225,-0,1651637
0,03530769,0,0,459,-0,8298466,0,459,0,1127947,0,459,-0,27393,0,03530769,0,0,459,-0,9386129,0,459,0,2819867,0,459,-0,1772488
0,03582693,0,0,46575,-0,8258182,0,46575,0,1127947,0,46575,-0,2779583,0,03582693,0,0,46575,-0,9305562,0,46575,0,2819867,0,46575,-0,1812772
0,03634615,0,0,4725,-0,8258182,0,4725,0,1087663,0,4725,-0,2779583,0,03634615,0,0,4725,-0,9305562,0,4725,0,2860151,0,4725,-0,1772488
0,03686538,0,0,47925,-0,8258182,0,47925,0,1127947,0,47925,-0,2819867,0,03686538,0,0,47925,-0,9265279,0,47925,0,2860151,0,47925,-0,1772488
0,03738461,0,0,486,-0,833875,0,486,0,1087663,0,486,-0,2860151,0,03738461,0,0,486,-0,9184711,0,486,0,2940719,0,486,-0,1772488
0,03790385,0,0,49275,-0,833875,0,49275,0,1047379,0,49275,-0,2819867,0,03790385,0,0,49275,-0,9184711,0,49275,0,2981002,0,49275,-0,169192
0,03842308,0,0,4995,-0,8419318,0,4995,0,1047379,0,4995,-0,27393,0,03842308,0,0,4995,-0,9224994,0,4995,0,2940719,0,4995,-0,1651637
0,03894231,0,0,50625,-0,8419318,0,50625,0,1047379,0,50625,-0,2618448,0,03894231,0,0,50625,-0,9224994,0,50625,0,2940719,0,50625,-0,1651637
0,03946154,0,0,513,-0,8459601,0,513,0,1007095,0,513,-0,2618448,0,03946154,0,0,513,-0,9305562,0,513,0,2940719,0,513,-0,1571069
0,03998077,0,0,51975,-0,8540169,0,51975,0,09668116,0,51975,-0,2578164,0,03998077,0,0,51975,-0,9345846,0,51975,0,2940719,0,51975,-0,1611353
0,0405,1,12459E-05,0,5265,-0,8540169,0,5265,0,09668116,0,5265,-0,2578164,0,0405,1,19173E-05,0,5265,-0,9506981,0,5265,0,2940719,0,5265,-0,1611353
0,04101923,1,326009E-05,0,53325,-0,8620737,0,53325,0,09668116,0,53325,-0,2537881,0,04101923,1,107805E-05,0,53325,-0,9547265,0,53325,0,2940719,0,53325,-0,1611353
0,04153846,1,594568E-05,0,54,-0,866102,0,54,0,09668116,0,54,-0,2618448,0,04153846,1,09102E-05,0,54,-0,97084,0,54,0,2900435,0,54,-0,1571069
0,04205769,1,661708E-05,0,54675,-0,8741588,0,54675,0,1047379,0,54675,-0,2618448,0,04205769,9,567407E-06,0,54675,-0,97084,0,54675,0,2940719,0,54675,-0,1490501
0,04257692,1,359579E-05,0,5535,-0,8781872,0,5535,0,09668116,0,5535,-0,2658732,0,04257692,7,217517E-06,0,5535,-0,9748684,0,5535,0,2860151,0,5535,-0,1490501
0,04309615,1,05745E-05,0,56025,-0,8781872,0,56025,0,09265278,0,56025,-0,2658732,0,04309615,7,049668E-06,0,56025,-0,9788967,0,56025,0,2981002,0,56025,-0,1450217
0,04361539,1,141375E-05,0,567,-0,8741588,0,567,0,1007095,0,567,-0,2658732,0,04361539,7,049668E-06,0,567,-0,9668117,0,567,0,2900435,0,567,-0,1530785
0,04413462,1,225299E-05,0,57375,-0,8741588,0,57375,0,1047379,0,57375,-0,2658732,0,04413462,5,874724E-06,0,57375,-0,9547265,0,57375,0,2940719,0,57375,-0,1530785
0,04465385,1,258869E-05,0,5805,-0,8741588,0,5805,0,1007095,0,5805,-0,2658732,0,04465385,5,203327E-06,0,5805,-0,9466697,0,5805,0,2900435,0,5805,-0,1571069
0,04517308,1,225299E-05,0,58725,-0,8701304,0,58725,0,1087663,0,58725,-0,2618448,0,04517308,5,203327E-06,0,58725,-0,9506981,0,58725,0,2860151,0,58725,-0,1571069
0,04569231,1,225299E-05,0,594,-0,866102,0,594,0,1168231,0,594,-0,2658732,0,04569231,4,867628E-06,0,594,-0,9466697,0,594,0,2779583,0,594,-0,1571069
0,04621154,1,12459E-05,0,60075,-0,8580453,0,60075,0,1087663,0,60075,-0,27393,0,04621154,4,196231E-06,0,60075,-0,9506981,0,60075,0,2779583,0,60075,-0,1530785
0,04673077,1,05745E-05,0,6075,-0,8499885,0,6075,0,1127947,0,6075,-0,27393,0,04673077,3,860533E-06,0,6075,-0,9426414,0,6075,0,2819867,0,6075,-0,1571069
0,04725,9,231708E-06,0,61425,-0,8459601,0,61425,0,1168231,0,61425,-0,2699016,0,04725,3,860533E-06,0,61425,-0,9386129,0,61425,0,27393,0,61425,-0,1450217
0,04776923,8,89601E-06,0,621,-0,8419318,0,621,0,1087663,0,621,-0,2779583,0,04776923,2,853437E-06,0,621,-0,9426414,0,621,0,27393,0,621,-0,1490501
0,04828846,1,05745E-05,0,62775,-0,8379034,0,62775,0,1127947,0,62775,-0,2779583,0,04828846,3,524834E-06,0,62775,-0,9386129,0,62775,0,2779583,0,62775,-0,1530785
0,04880769,1,225299E-05,0,6345,-0,8419318,0,6345,0,1087663,0,6345,-0,27393,0,04880769,6,378271E-06,0,6345,-0,9345846,0,6345,0,2779583,0,6345,-0,1611353
0,04932692,1,359579E-05,0,64125,-0,8459601,0,64125,0,1127947,0,64125,-0,27393,0,04932692,9,063859E-06,0,64125,-0,9305562,0,64125,0,2860151,0,64125,-0,1571069
0,04984615,1,443503E-05,0,648,-0,8499885,0,648,0,1127947,0,648,-0,2779583,0,04984615,1,05745E-05,0,648,-0,9305562,0,648,0,2900435,0,648,-0,1651637
0,05036538,1,326009E-05,0,65475,-0,8540169,0,65475,0,1127947,0,65475,-0,2779583,0,05036538,1,141375E-05,0,65475,-0,9386129,0,65475,0,2900435,0,65475,-0,1651637
0,05088462,1,19173E-05,0,6615,-0,8580453,0,6615,0,1047379,0,6615,-0,2860151,0,05088462,1,05745E-05,0,6615,-0,9466697,0,6615,0,2940719,0,6615,-0,1611353
0,05140385,1,05745E-05,0,66825,-0,8580453,0,66825,0,1047379,0,66825,-0,2779583,0,05140385,1,040665E-05,0,66825,-0,9426414,0,66825,0,2860151,0,66825,-0,1571069
0,05192308,1,007095E-05,0,675,-0,8499885,0,675,0,1007095,0,675,-0,27393,0,05192308,1,05745E-05,0,675,-0,9345846,0,675,0,2900435,0,675,-0,1571069
0,05244231,1,05745E-05,0,68175,-0,8459601,0,68175,0,1007095,0,68175,-0,2779583,0,05244231,1,12459E-05,0,68175,-0,9305562,0,68175,0,2860151,0,68175,-0,1530785
0,05296154,1,040665E-05,0,6885,-0,8459601,0,6885,0,1007095,0,6885,-0,2819867,0,05296154,1,309224E-05,0,6885,-0,9224994,0,6885,0,2819867,0,6885,-0,1530785
0,05348077,8,560311E-06,0,69525,-0,8540169,0,69525,0,1007095,0,69525,-0,2779583,0,05348077,1,309224E-05,0,69525,-0,9265279,0,69525,0,2819867,0,69525,-0,1409934
0,054,6,378271E-06,0,702,-0,8580453,0,702,0,1007095,0,702,-0,2779583,0,054,1,174945E-05,0,702,-0,9265279,0,702,0,2819867,0,702,-0,1490501
0,05451923,4,867628E-06,0,70875,-0,8580453,0,70875,0,1007095,0,70875,-0,2819867,0,05451923,1,258869E-05,0,70875,-0,9305562,0,70875,0,2699016,0,70875,-0,1490501
0,05503846,6,54612E-06,0,7155,-0,8580453,0,7155,0,1007095,0,7155,-0,2779583,0,05503846,1,393149E-05,0,7155,-0,9345846,0,7155,0,27393,0,7155,-0,1530785
0,05555769,8,560311E-06,0,72225,-0,8580453,0,72225,0,1047379,0,72225,-0,2779583,0,05555769,1,242084E-05,0,72225,-0,9506981,0,72225,0,2658732,0,72225,-0,1611353
0,05607693,9,231708E-06,0,729,-0,8499885,0,729,0,1047379,0,729,-0,2860151,0,05607693,1,05745E-05,0,729,-0,9506981,0,729,0,2699016,0,729,-0,1651637
0,05659616,1,05745E-05,0,73575,-0,8499885,0,73575,0,1007095,0,73575,-0,2940719,0,05659616,9,567407E-06,0,73575,-0,9627832,0,73575,0,2658732,0,73575,-0,1812772
0,05711538,1,275654E-05,0,7425,-0,8459601,0,7425,0,1087663,0,7425,-0,3021286,0,05711538,9,567407E-06,0,7425,-0,9668117,0,7425,0,2658732,0,7425,-0,1772488
0,05763461,1,275654E-05,0,74925,-0,8419318,0,74925,0,1168231,0,74925,-0,3021286,0,05763461,1,05745E-05,0,74925,-0,97084,0,74925,0,27393,0,74925,-0,1812772
0,05815385,1,174945E-05,0,756,-0,8419318,0,756,0,1127947,0,756,-0,3021286,0,05815385,1,05745E-05,0,756,-0,9627832,0,756,0,27393,0,756,-0,1772488
0,05867308,1,19173E-05,0,76275,-0,8379034,0,76275,0,1127947,0,76275,-0,2981002,0,05867308,9,399557E-06,0,76275,-0,9547265,0,76275,0,2779583,0,76275,-0,1812772
0,05919231,1,12459E-05,0,7695,-0,8419318,0,7695,0,1087663,0,7695,-0,2900435,0,05919231,9,231708E-06,0,7695,-0,9426414,0,7695,0,2819867,0,7695,-0,1853056
0,05971154,1,09102E-05,0,77625,-0,8419318,0,77625,0,1047379,0,77625,-0,2819867,0,05971154,8,89601E-06,0,77625,-0,9265279,0,77625,0,2779583,0,77625,-0,1651637
0,06023077,1,19173E-05,0,783,-0,8499885,0,783,0,09265278,0,783,-0,2819867,0,06023077,9,063859E-06,0,783,-0,9224994,0,783,0,2900435,0,783,-0,1651637
0,06075,1,225299E-05,0,78975,-0,8540169,0,78975,0,0886244,0,78975,-0,27393,0,06075,9,231708E-06,0,78975,-0,9224994,0,78975,0,2860151,0,78975,-0,1571069
0,06126923,1,09102E-05,0,7965,-0,8540169,0,7965,0,09265278,0,7965,-0,2779583,0,06126923,7,049668E-06,0,7965,-0,9144427,0,7965,0,2900435,0,7965,-0,1571069
0,06178846,1,040665E-05,0,80325,-0,8620737,0,80325,0,09265278,0,80325,-0,2699016,0,06178846,4,867628E-06,0,80325,-0,9184711,0,80325,0,2900435,0,80325,-0,136965
0,06230769,1,02388E-05,0,81,-0,8701304,0,81,0,09668116,0,81,-0,2699016,0,06230769,5,874724E-06,0,81,-0,9265279,0,81,0,2940719,0,81,-0,136965
0,06282692,9,903106E-06,0,81675,-0,866102,0,81675,0,1087663,0,81675,-0,2658732,0,06282692,8,560311E-06,0,81675,-0,9345846,0,81675,0,2900435,0,81675,-0,1289082
0,06334615,1,02388E-05,0,8235,-0,866102,0,8235,0,1087663,0,8235,-0,2658732,0,06334615,9,735257E-06,0,8235,-0,9345846,0,8235,0,2900435,0,8235,-0,1208515
0,06386539,1,02388E-05,0,83025,-0,8620737,0,83025,0,1127947,0,83025,-0,2699016,0,06386539,9,063859E-06,0,83025,-0,9466697,0,83025,0,2900435,0,83025,-0,1248798
0,06438462,1,12459E-05,0,837,-0,8540169,0,837,0,1208515,0,837,-0,27393,0,06438462,6,54612E-06,0,837,-0,9547265,0,837,0,2819867,0,837,-0,1248798
0,06490385,1,19173E-05,0,84375,-0,8540169,0,84375,0,1248798,0,84375,-0,27393,0,06490385,3,189135E-06,0,84375,-0,9627832,0,84375,0,27393,0,84375,-0,1289082
0,06542308,1,225299E-05,0,8505,-0,8419318,0,8505,0,1248798,0,8505,-0,27393,0,06542308,5,035478E-07,0,8505,-0,9547265,0,8505,0,2658732,0,8505,-0,1450217
0,06594231,1,326009E-05,0,85725,-0,8379034,0,85725,0,1248798,0,85725,-0,2779583,0,06594231,2,349889E-06,0,85725,-0,9466697,0,85725,0,2658732,0,85725,-0,1490501
0,06646154,1,393149E-05,0,864,-0,8419318,0,864,0,1208515,0,864,-0,27393,0,06646154,5,874724E-06,0,864,-0,9547265,0,864,0,2537881,0,864,-0,1450217
0,06698077,1,258869E-05,0,87075,-0,8379034,0,87075,0,1168231,0,87075,-0,2779583,0,06698077,5,706875E-06,0,87075,-0,9426414,0,87075,0,2497597,0,87075,-0,1530785
0,0675,1,326009E-05,0,8775,-0,8379034,0,8775,0,1127947,0,8775,-0,2779583,0,0675,3,524834E-06,0,8775,-0,9426414,0,8775,0,2537881,0,8775,-0,1490501
0,06801923,1,460288E-05,0,88425,-0,833875,0,88425,0,1168231,0,88425,-0,2699016,0,06801923,3,356985E-06,0,88425,-0,9305562,0,88425,0,2658732,0,88425,-0,1450217
0,06853846,1,493858E-05,0,891,-0,8258182,0,891,0,1127947,0,891,-0,2658732,0,06853846,4,196231E-06,0,891,-0,9265279,0,891,0,27393,0,891,-0,1409934
0,0690577,1,326009E-05,0,89775,-0,8258182,0,89775,0,1087663,0,89775,-0,2578164,0,0690577,6,042573E-06,0,89775,-0,9224994,0,89775,0,2819867,0,89775,-0,1409934
0,06957693,1,12459E-05,0,9045,-0,8258182,0,9045,0,1047379,0,9045,-0,2537881,0,06957693,7,888914E-06,0,9045,-0,9305562,0,9045,0,2819867,0,9045,-0,1289082
0,07009616,1,326009E-05,0,91125,-0,8298466,0,91125,0,09668116,0,91125,-0,2497597,0,07009616,7,049668E-06,0,91125,-0,9184711,0,91125,0,2860151,0,91125,-0,1248798
0,07061539,1,527428E-05,0,918,-0,8459601,0,918,0,09668116,0,918,-0,2537881,0,07061539,6,210422E-06,0,918,-0,9265279,0,918,0,2860151,0,918,-0,1329366
0,07113462,1,628138E-05,0,92475,-0,8499885,0,92475,0,1047379,0,92475,-0,2497597,0,07113462,7,217517E-06,0,92475,-0,9265279,0,92475,0,2860151,0,92475,-0,1289082
0,07165385,1,594568E-05,0,9315,-0,8620737,0,9315,0,1047379,0,9315,-0,2537881,0,07165385,8,224613E-06,0,9315,-0,9386129,0,9315,0,2819867,0,9315,-0,1329366
0,07217308,1,393149E-05,0,93825,-0,866102,0,93825,0,1087663,0,93825,-0,2578164,0,07217308,9,231708E-06,0,93825,-0,9506981,0,93825,0,2819867,0,93825,-0,1289082
0,0726923,1,242084E-05,0,945,-0,866102,0,945,0,1208515,0,945,-0,2658732,0,0726923,7,217517E-06,0,945,-0,9587549,0,945,0,27393,0,945,-0,1289082
0,07321154,1,326009E-05,0,95175,-0,8580453,0,95175,0,1289082,0,95175,-0,2658732,0,07321154,4,196231E-06,0,95175,-0,97084,0,95175,0,2699016,0,95175,-0,1289082
0,07373077,1,426719E-05,0,9585,-0,8499885,0,9585,0,1289082,0,9585,-0,2658732,0,07373077,5,539025E-06,0,9585,-0,97084,0,9585,0,2699016,0,9585,-0,1409934
0,07425,1,275654E-05,0,96525,-0,8379034,0,96525,0,1289082,0,96525,-0,2699016,0,07425,8,560311E-06,0,96525,-0,97084,0,96525,0,27393,0,96525,-0,1450217
0,07476923,9,903106E-06,0,972,-0,833875,0,972,0,1248798,0,972,-0,2779583,0,07476923,9,231708E-06,0,972,-0,9668117,0,972,0,27393,0,972,-0,1571069
0,07528846,9,063859E-06,0,97875,-0,8298466,0,97875,0,1168231,0,97875,-0,27393,0,07528846,8,560311E-06,0,97875,-0,9668117,0,97875,0,2779583,0,97875,-0,1651637
0,07580769,9,399557E-06,0,9855,-0,8419318,0,9855,0,1087663,0,9855,-0,27393,0,07580769,7,721065E-06,0,9855,-0,9547265,0,9855,0,2860151,0,9855,-0,1732204
0,07632692,9,063859E-06,0,99225,-0,8499885,0,99225,0,09265278,0,99225,-0,2699016,0,07632692,5,874724E-06,0,99225,-0,9466697,0,99225,0,2981002,0,99225,-0,1772488
0,07684615,8,560311E-06,0,999,-0,8540169,0,999,0,08056764,0,999,-0,2658732,0,07684615,4,196231E-06,0,999,-0,9426414,0,999,0,3021286,0,999,-0,1812772
0,07736538,8,560311E-06,1,00575,-0,8499885,1,00575,0,08056764,1,00575,-0,2618448,0,07736538,4,867628E-06,1,00575,-0,9305562,1,00575,0,3101854,1,00575,-0,1732204
0,07788461,7,888914E-06,1,0125,-0,8540169,1,0125,0,07251087,1,0125,-0,2658732,0,07788461,5,874724E-06,1,0125,-0,9144427,1,0125,0,306157,1,0125,-0,1772488
0,07840385,6,881819E-06,1,01925,-0,8459601,1,01925,0,06848249,1,01925,-0,2578164,0,07840385,1,040665E-05,1,01925,-0,9063858,1,01925,0,306157,1,01925,-0,1732204
0,07892308,6,378271E-06,1,026,-0,8419318,1,026,0,07251087,1,026,-0,2658732,0,07892308,1,326009E-05,1,026,-0,8983291,1,026,0,2981002,1,026,-0,1611353
0,07944231,7,553216E-06,1,03275,-0,8459601,1,03275,0,08056764,1,03275,-0,2618448,0,07944231,1,19173E-05,1,03275,-0,9063858,1,03275,0,2940719,1,03275,-0,1611353
0,07996154,8,224613E-06,1,0395,-0,8379034,1,0395,0,0886244,1,0395,-0,2699016,0,07996154,8,89601E-06,1,0395,-0,9063858,1,0395,0,2940719,1,0395,-0,1611353
0,08048077,1,05745E-05,1,04625,-0,8459601,1,04625,0,09265278,1,04625,-0,2699016,0,08048077,9,231708E-06,1,04625,-0,9224994,1,04625,0,2860151,1,04625,-0,1490501
0,081,1,242084E-05,1,053,-0,8580453,1,053,0,09265278,1,053,-0,27393,0,081,1,225299E-05,1,053,-0,9345846,1,053,0,2860151,1,053,-0,1571069
0,08151923,1,258869E-05,1,05975,-0,8580453,1,05975,0,1007095,1,05975,-0,2779583,0,08151923,1,292439E-05,1,05975,-0,9506981,1,05975,0,2940719,1,05975,-0,1611353
0,08203846,1,19173E-05,1,0665,-0,8580453,1,0665,0,1007095,1,0665,-0,2819867,0,08203846,1,174945E-05,1,0665,-0,9587549,1,0665,0,2940719,1,0665,-0,169192
0,08255769,9,903106E-06,1,07325,-0,8540169,1,07325,0,1007095,1,07325,-0,2860151,0,08255769,1,05745E-05,1,07325,-0,9627832,1,07325,0,2981002,1,07325,-0,1732204
0,08307692,7,888914E-06,1,08,-0,8499885,1,08,0,1047379,1,08,-0,2860151,0,08307692,1,15816E-05,1,08,-0,9627832,1,08,0,3021286,1,08,-0,1732204
0,08359616,9,231708E-06,1,08675,-0,8419318,1,08675,0,1007095,1,08675,-0,2819867,0,08359616,1,09102E-05,1,08675,-0,9547265,1,08675,0,3021286,1,08675,-0,1772488
0,08411539,1,376364E-05,1,0935,-0,8419318,1,0935,0,1007095,1,0935,-0,2860151,0,08411539,1,174945E-05,1,0935,-0,9506981,1,0935,0,2981002,1,0935,-0,1772488
0,08463462,1,594568E-05,1,10025,-0,8379034,1,10025,0,09265278,1,10025,-0,2819867,0,08463462,1,376364E-05,1,10025,-0,9426414,1,10025,0,3021286,1,10025,-0,1772488
0,08515385,1,594568E-05,1,107,-0,8459601,1,107,0,08459602,1,107,-0,2819867,0,08515385,1,527428E-05,1,107,-0,9345846,1,107,0,2900435,1,107,-0,1812772
0,08567308,1,443503E-05,1,11375,-0,8499885,1,11375,0,08459602,1,11375,-0,2819867,0,08567308,1,762417E-05,1,11375,-0,9386129,1,11375,0,2981002,1,11375,-0,1812772
0,08619231,1,258869E-05,1,1205,-0,8580453,1,1205,0,08056764,1,1205,-0,2819867,0,08619231,1,896696E-05,1,1205,-0,9345846,1,1205,0,2940719,1,1205,-0,1812772
0,08671154,1,309224E-05,1,12725,-0,8620737,1,12725,0,07653925,1,12725,-0,2819867,0,08671154,1,560998E-05,1,12725,-0,9426414,1,12725,0,2900435,1,12725,-0,1732204
0,08723077,1,493858E-05,1,134,-0,8580453,1,134,0,08459602,1,134,-0,2860151,0,08723077,1,242084E-05,1,134,-0,9506981,1,134,0,2900435,1,134,-0,1732204
0,08775,1,460288E-05,1,14075,-0,8580453,1,14075,0,09265278,1,14075,-0,2860151,0,08775,1,09102E-05,1,14075,-0,9506981,1,14075,0,2900435,1,14075,-0,1732204
0,08826923,1,527428E-05,1,1475,-0,8540169,1,1475,0,09265278,1,1475,-0,2860151,0,08826923,9,903106E-06,1,1475,-0,9587549,1,1475,0,2819867,1,1475,-0,169192
0,08878846,1,393149E-05,1,15425,-0,8540169,1,15425,0,09668116,1,15425,-0,2900435,0,08878846,1,208515E-05,1,15425,-0,9547265,1,15425,0,2860151,1,15425,-0,1571069
0,0893077,1,05745E-05,1,161,-0,8540169,1,161,0,1047379,1,161,-0,2940719,0,0893077,1,19173E-05,1,161,-0,9506981,1,161,0,2779583,1,161,-0,1611353
0,08982693,9,903106E-06,1,16775,-0,8540169,1,16775,0,1047379,1,16775,-0,2940719,0,08982693,9,063859E-06,1,16775,-0,9466697,1,16775,0,2819867,1,16775,-0,1611353
0,09034616,9,735257E-06,1,1745,-0,8620737,1,1745,0,1007095,1,1745,-0,2900435,0,09034616,6,210422E-06,1,1745,-0,9466697,1,1745,0,2819867,1,1745,-0,1651637
0,09086539,7,049668E-06,1,18125,-0,866102,1,18125,0,1007095,1,18125,-0,2779583,0,09086539,3,692683E-06,1,18125,-0,9506981,1,18125,0,2819867,1,18125,-0,1611353
0,09138462,4,196231E-06,1,188,-0,8580453,1,188,0,09668116,1,188,-0,2779583,0,09138462,3,356985E-06,1,188,-0,9506981,1,188,0,2981002,1,188,-0,1611353
0,09190385,3,524834E-06,1,19475,-0,8580453,1,19475,0,0886244,1,19475,-0,27393,0,09190385,4,531929E-06,1,19475,-0,9506981,1,19475,0,3021286,1,19475,-0,1611353
0,09242308,4,531929E-06,1,2015,-0,8580453,1,2015,0,08056764,1,2015,-0,2779583,0,09242308,5,874724E-06,1,2015,-0,9506981,1,2015,0,3021286,1,2015,-0,169192
0,09294231,6,881819E-06,1,20825,-0,8540169,1,20825,0,06848249,1,20825,-0,2699016,0,09294231,7,721065E-06,1,20825,-0,9426414,1,20825,0,3021286,1,20825,-0,1732204
0,09346154,8,89601E-06,1,215,-0,8540169,1,215,0,06848249,1,215,-0,2699016,0,09346154,7,217517E-06,1,215,-0,9345846,1,215,0,2981002,1,215,-0,1772488
0,09398077,8,224613E-06,1,22175,-0,8499885,1,22175,0,06848249,1,22175,-0,27393,0,09398077,6,54612E-06,1,22175,-0,9305562,1,22175,0,306157,1,22175,-0,1772488
0,0945,6,54612E-06,1,2285,-0,8540169,1,2285,0,06042573,1,2285,-0,27393,0,0945,6,378271E-06,1,2285,-0,9305562,1,2285,0,3021286,1,2285,-0,1732204
0,09501923,5,539025E-06,1,23525,-0,8580453,1,23525,0,05639734,1,23525,-0,2819867,0,09501923,5,874724E-06,1,23525,-0,9345846,1,23525,0,2940719,1,23525,-0,1732204
0,09553846,5,874724E-06,1,242,-0,8620737,1,242,0,05236896,1,242,-0,2900435,0,09553846,5,874724E-06,1,242,-0,9345846,1,242,0,2940719,1,242,-0,1772488
0,09605769,7,385367E-06,1,24875,-0,8741588,1,24875,0,06445411,1,24875,-0,2940719,0,09605769,7,385367E-06,1,24875,-0,9426414,1,24875,0,2940719,1,24875,-0,1893339
0,09657692,8,560311E-06,1,2555,-0,866102,1,2555,0,06042573,1,2555,-0,3021286,0,09657692,8,728161E-06,1,2555,-0,9466697,1,2555,0,2779583,1,2555,-0,1772488
0,09709615,1,05745E-05,1,26225,-0,8620737,1,26225,0,07653925,1,26225,-0,3021286,0,09709615,7,553216E-06,1,26225,-0,9587549,1,26225,0,27393,1,26225,-0,1772488
0,09761538,1,242084E-05,1,269,-0,8580453,1,269,0,0886244,1,269,-0,306157,0,09761538,6,210422E-06,1,269,-0,9547265,1,269,0,2699016,1,269,-0,1772488
0,09813461,1,292439E-05,1,27575,-0,8499885,1,27575,0,1047379,1,27575,-0,3021286,0,09813461,4,867628E-06,1,27575,-0,9587549,1,27575,0,2699016,1,27575,-0,1812772
0,09865385,1,326009E-05,1,2825,-0,8499885,1,2825,0,1127947,1,2825,-0,3021286,0,09865385,4,028382E-06,1,2825,-0,9587549,1,2825,0,2658732,1,2825,-0,1732204
0,09917308,1,326009E-05,1,28925,-0,8540169,1,28925,0,1248798,1,28925,-0,3142138,0,09917308,5,539025E-06,1,28925,-0,9547265,1,28925,0,2699016,1,28925,-0,1772488
0,09969231,1,393149E-05,1,296,-0,8620737,1,296,0,1248798,1,296,-0,3101854,0,09969231,6,210422E-06,1,296,-0,9547265,1,296,0,2699016,1,296,-0,1772488
0,1002115,1,493858E-05,1,30275,-0,8701304,1,30275,0,1208515,1,30275,-0,3142138,0,1002115,6,54612E-06,1,30275,-0,9506981,1,30275,0,27393,1,30275,-0,1732204
0,1007308,1,560998E-05,1,3095,-0,8822156,1,3095,0,1168231,1,3095,-0,306157,0,1007308,7,217517E-06,1,3095,-0,9547265,1,3095,0,2819867,1,3095,-0,1651637
0,10125,1,560998E-05,1,31625,-0,8741588,1,31625,0,1087663,1,31625,-0,3021286,0,10125,7,721065E-06,1,31625,-0,9547265,1,31625,0,2900435,1,31625,-0,169192
0,1017692,1,544213E-05,1,323,-0,866102,1,323,0,09668116,1,323,-0,3021286,0,1017692,6,881819E-06,1,323,-0,9668117,1,323,0,2940719,1,323,-0,1732204
0,1022885,1,376364E-05,1,32975,-0,8620737,1,32975,0,0886244,1,32975,-0,2981002,0,1022885,5,539025E-06,1,32975,-0,9627832,1,32975,0,2940719,1,32975,-0,169192
0,1028077,1,19173E-05,1,3365,-0,8580453,1,3365,0,08056764,1,3365,-0,2900435,0,1028077,3,860533E-06,1,3365,-0,9627832,1,3365,0,2940719,1,3365,-0,1732204
0,1033269,1,443503E-05,1,34325,-0,8499885,1,34325,0,07653925,1,34325,-0,2819867,0,1033269,3,021286E-06,1,34325,-0,9547265,1,34325,0,2900435,1,34325,-0,1772488
0,1038462,1,594568E-05,1,35,-0,8499885,1,35,0,07653925,1,35,-0,2819867,0,1038462,4,699778E-06,1,35,-0,9506981,1,35,0,2900435,1,35,-0,1732204
0,1043654,1,326009E-05,1,35675,-0,8540169,1,35675,0,07653925,1,35675,-0,2779583,0,1043654,6,881819E-06,1,35675,-0,9506981,1,35675,0,2940719,1,35675,-0,1772488
0,1048846,1,02388E-05,1,3635,-0,8580453,1,3635,0,07653925,1,3635,-0,2860151,0,1048846,7,888914E-06,1,3635,-0,9466697,1,3635,0,2940719,1,3635,-0,1772488
0,1054038,9,735257E-06,1,37025,-0,8580453,1,37025,0,07653925,1,37025,-0,2779583,0,1054038,8,89601E-06,1,37025,-0,9466697,1,37025,0,2900435,1,37025,-0,1812772
0,1059231,1,309224E-05,1,377,-0,8540169,1,377,0,08056764,1,377,-0,2779583,0,1059231,8,89601E-06,1,377,-0,9386129,1,377,0,2900435,1,377,-0,1772488
0,1064423,1,527428E-05,1,38375,-0,8499885,1,38375,0,08459602,1,38375,-0,2860151,0,1064423,8,392462E-06,1,38375,-0,9426414,1,38375,0,2860151,1,38375,-0,1732204
0,1069615,1,359579E-05,1,3905,-0,8459601,1,3905,0,08459602,1,3905,-0,2900435,0,1069615,9,567407E-06,1,3905,-0,9426414,1,3905,0,2779583,1,3905,-0,1812772
0,1074808,1,174945E-05,1,39725,-0,8419318,1,39725,0,0886244,1,39725,-0,2940719,0,1074808,1,02388E-05,1,39725,-0,9386129,1,39725,0,2779583,1,39725,-0,1732204
0,108,1,292439E-05,1,404,-0,8459601,1,404,0,1007095,1,404,-0,2981002,0,108,1,174945E-05,1,404,-0,9345846,1,404,0,2779583,1,404,-0,1732204
0,1085192,1,426719E-05,1,41075,-0,8459601,1,41075,0,1047379,1,41075,-0,2981002,0,1085192,1,19173E-05,1,41075,-0,9345846,1,41075,0,2779583,1,41075,-0,1772488
0,1090385,1,527428E-05,1,4175,-0,8459601,1,4175,0,09668116,1,4175,-0,3021286,0,1090385,1,225299E-05,1,4175,-0,9345846,1,4175,0,2819867,1,4175,-0,1812772
0,1095577,1,493858E-05,1,42425,-0,8459601,1,42425,0,09668116,1,42425,-0,2940719,0,1095577,1,359579E-05,1,42425,-0,9386129,1,42425,0,2860151,1,42425,-0,1772488
0,1100769,1,359579E-05,1,431,-0,8459601,1,431,0,0886244,1,431,-0,2940719,0,1100769,1,275654E-05,1,431,-0,9426414,1,431,0,2900435,1,431,-0,1853056
0,1105962,1,527428E-05,1,43775,-0,8419318,1,43775,0,08056764,1,43775,-0,2900435,0,1105962,1,05745E-05,1,43775,-0,9386129,1,43775,0,2981002,1,43775,-0,1812772
0,1111154,1,678492E-05,1,4445,-0,8459601,1,4445,0,07653925,1,4445,-0,2900435,0,1111154,1,05745E-05,1,4445,-0,9386129,1,4445,0,2981002,1,4445,-0,1853056
0,1116346,1,426719E-05,1,45125,-0,8499885,1,45125,0,07251087,1,45125,-0,2900435,0,1116346,1,326009E-05,1,45125,-0,9426414,1,45125,0,3101854,1,45125,-0,1893339
0,1121539,1,141375E-05,1,458,-0,8540169,1,458,0,06848249,1,458,-0,2900435,0,1121539,1,426719E-05,1,458,-0,9466697,1,458,0,3101854,1,458,-0,1973907
0,1126731,7,888914E-06,1,46475,-0,8540169,1,46475,0,06848249,1,46475,-0,2860151,0,1126731,1,292439E-05,1,46475,-0,9426414,1,46475,0,3101854,1,46475,-0,1893339
0,1131923,4,699778E-06,1,4715,-0,8580453,1,4715,0,06848249,1,4715,-0,2860151,0,1131923,1,326009E-05,1,4715,-0,9466697,1,4715,0,3101854,1,4715,-0,1933623
0,1137115,7,217517E-06,1,47825,-0,8540169,1,47825,0,06848249,1,47825,-0,2819867,0,1137115,1,527428E-05,1,47825,-0,9386129,1,47825,0,3142138,1,47825,-0,1853056
0,1142308,8,560311E-06,1,485,-0,8499885,1,485,0,07251087,1,485,-0,2819867,0,1142308,1,544213E-05,1,485,-0,9426414,1,485,0,3142138,1,485,-0,1933623
0,11475,7,888914E-06,1,49175,-0,8459601,1,49175,0,08056764,1,49175,-0,2819867,0,11475,1,15816E-05,1,49175,-0,9305562,1,49175,0,306157,1,49175,-0,1853056
0,1152692,7,888914E-06,1,4985,-0,8459601,1,4985,0,07653925,1,4985,-0,2860151,0,1152692,7,888914E-06,1,4985,-0,9305562,1,4985,0,3021286,1,4985,-0,1732204
0,1157885,6,210422E-06,1,50525,-0,8499885,1,50525,0,08459602,1,50525,-0,2900435,0,1157885,4,531929E-06,1,50525,-0,9345846,1,50525,0,2940719,1,50525,-0,1732204
0,1163077,6,210422E-06,1,512,-0,8540169,1,512,0,09265278,1,512,-0,2940719,0,1163077,3,189135E-06,1,512,-0,9345846,1,512,0,2860151,1,512,-0,1732204
0,1168269,8,224613E-06,1,51875,-0,8580453,1,51875,0,08459602,1,51875,-0,2981002,0,1168269,3,860533E-06,1,51875,-0,9265279,1,51875,0,2819867,1,51875,-0,1651637
0,1173462,9,903106E-06,1,5255,-0,8540169,1,5255,0,09265278,1,5255,-0,2981002,0,1173462,6,210422E-06,1,5255,-0,9386129,1,5255,0,2779583,1,5255,-0,1611353
0,1178654,8,224613E-06,1,53225,-0,8540169,1,53225,0,09668116,1,53225,-0,3021286,0,1178654,6,378271E-06,1,53225,-0,9305562,1,53225,0,27393,1,53225,-0,1611353
0,1183846,5,035477E-06,1,539,-0,8540169,1,539,0,09668116,1,539,-0,3021286,0,1183846,6,881819E-06,1,539,-0,9426414,1,539,0,2819867,1,539,-0,169192
0,1189038,5,203327E-06,1,54575,-0,8540169,1,54575,0,09668116,1,54575,-0,3021286,0,1189038,8,224613E-06,1,54575,-0,9426414,1,54575,0,2860151,1,54575,-0,1611353
0,1194231,9,567407E-06,1,5525,-0,8540169,1,5525,0,09668116,1,5525,-0,3021286,0,1194231,8,392462E-06,1,5525,-0,9506981,1,5525,0,2819867,1,5525,-0,1651637
0,1199423,1,19173E-05,1,55925,-0,8620737,1,55925,0,1007095,1,55925,-0,2981002,0,1199423,7,553216E-06,1,55925,-0,9506981,1,55925,0,2860151,1,55925,-0,1732204
0,1204615,1,174945E-05,1,566,-0,8540169,1,566,0,09668116,1,566,-0,2900435,0,1204615,7,217517E-06,1,566,-0,9627832,1,566,0,2900435,1,566,-0,1772488
0,1209808,1,02388E-05,1,57275,-0,8580453,1,57275,0,09265278,1,57275,-0,2860151,0,1209808,8,560311E-06,1,57275,-0,9547265,1,57275,0,2981002,1,57275,-0,1732204
0,1215,1,15816E-05,1,5795,-0,8620737,1,5795,0,08056764,1,5795,-0,2819867,0,1215,7,553216E-06,1,5795,-0,9587549,1,5795,0,2940719,1,5795,-0,1732204
0,1220192,1,326009E-05,1,58625,-0,8540169,1,58625,0,08056764,1,58625,-0,2819867,0,1220192,6,54612E-06,1,58625,-0,9547265,1,58625,0,2981002,1,58625,-0,1732204
0,1225385,1,292439E-05,1,593,-0,8540169,1,593,0,07653925,1,593,-0,2819867,0,1225385,6,210422E-06,1,593,-0,9547265,1,593,0,2900435,1,593,-0,1732204
0,1230577,8,560311E-06,1,59975,-0,8580453,1,59975,0,08459602,1,59975,-0,2779583,0,1230577,5,874724E-06,1,59975,-0,9386129,1,59975,0,2981002,1,59975,-0,1651637
0,1235769,3,860533E-06,1,6065,-0,8580453,1,6065,0,08459602,1,6065,-0,2819867,0,1235769,6,210422E-06,1,6065,-0,9426414,1,6065,0,2940719,1,6065,-0,1732204
0,1240962,3,860533E-06,1,61325,-0,8540169,1,61325,0,09265278,1,61325,-0,2860151,0,1240962,6,54612E-06,1,61325,-0,9345846,1,61325,0,2940719,1,61325,-0,1651637
0,1246154,7,049668E-06,1,62,-0,8459601,1,62,0,1007095,1,62,-0,2860151,0,1246154,6,54612E-06,1,62,-0,9426414,1,62,0,2940719,1,62,-0,1611353
0,1251346,1,05745E-05,1,62675,-0,8459601,1,62675,0,1007095,1,62675,-0,2819867,0,1251346,7,217517E-06,1,62675,-0,9345846,1,62675,0,2981002,1,62675,-0,1611353
0,1256538,1,15816E-05,1,6335,-0,8499885,1,6335,0,1007095,1,6335,-0,2860151,0,1256538,9,231708E-06,1,6335,-0,9386129,1,6335,0,2900435,1,6335,-0,1611353
0,1261731,1,05745E-05,1,64025,-0,8499885,1,64025,0,1047379,1,64025,-0,2779583,0,1261731,1,225299E-05,1,64025,-0,9345846,1,64025,0,2981002,1,64025,-0,1571069
0,1266923,1,15816E-05,1,647,-0,8499885,1,647,0,1007095,1,647,-0,27393,0,1266923,1,225299E-05,1,647,-0,9426414,1,647,0,2981002,1,647,-0,1611353
0,1272115,1,393149E-05,1,65375,-0,8459601,1,65375,0,1007095,1,65375,-0,27393,0,1272115,9,231708E-06,1,65375,-0,9386129,1,65375,0,2940719,1,65375,-0,1611353
0,1277308,1,510643E-05,1,6605,-0,8419318,1,6605,0,09668116,1,6605,-0,2779583,0,1277308,8,560311E-06,1,6605,-0,9426414,1,6605,0,2900435,1,6605,-0,1651637
0,12825,1,393149E-05,1,66725,-0,8499885,1,66725,0,09668116,1,66725,-0,27393,0,12825,9,231708E-06,1,66725,-0,9466697,1,66725,0,2860151,1,66725,-0,169192
0,1287692,1,15816E-05,1,674,-0,8580453,1,674,0,09265278,1,674,-0,27393,0,1287692,1,19173E-05,1,674,-0,9466697,1,674,0,2860151,1,674,-0,1651637
0,1292885,8,89601E-06,1,68075,-0,8580453,1,68075,0,0886244,1,68075,-0,27393,0,1292885,1,225299E-05,1,68075,-0,9506981,1,68075,0,2860151,1,68075,-0,1651637
0,1298077,7,217517E-06,1,6875,-0,866102,1,6875,0,0886244,1,6875,-0,2779583,0,1298077,1,15816E-05,1,6875,-0,9506981,1,6875,0,2819867,1,6875,-0,1651637
0,1303269,8,560311E-06,1,69425,-0,866102,1,69425,0,0886244,1,69425,-0,2860151,0,1303269,1,242084E-05,1,69425,-0,9587549,1,69425,0,2900435,1,69425,-0,1732204
0,1308462,1,326009E-05,1,701,-0,8701304,1,701,0,0886244,1,701,-0,2819867,0,1308462,1,19173E-05,1,701,-0,9587549,1,701,0,2900435,1,701,-0,1732204
0,1313654,1,510643E-05,1,70775,-0,8741588,1,70775,0,0886244,1,70775,-0,2819867,0,1313654,1,12459E-05,1,70775,-0,9587549,1,70775,0,2940719,1,70775,-0,1732204
0,1318846,1,258869E-05,1,7145,-0,8701304,1,7145,0,08459602,1,7145,-0,2779583,0,1318846,1,12459E-05,1,7145,-0,9547265,1,7145,0,2981002,1,7145,-0,1772488
0,1324039,8,89601E-06,1,72125,-0,866102,1,72125,0,0886244,1,72125,-0,2779583,0,1324039,1,05745E-05,1,72125,-0,9587549,1,72125,0,2940719,1,72125,-0,1732204
0,1329231,8,224613E-06,1,728,-0,8580453,1,728,0,0886244,1,728,-0,2779583,0,1329231,8,89601E-06,1,728,-0,9587549,1,728,0,2981002,1,728,-0,169192
0,1334423,1,09102E-05,1,73475,-0,8580453,1,73475,0,09265278,1,73475,-0,2699016,0,1334423,9,063859E-06,1,73475,-0,9506981,1,73475,0,2900435,1,73475,-0,1651637
0,1339615,1,359579E-05,1,7415,-0,8499885,1,7415,0,1007095,1,7415,-0,2658732,0,1339615,1,19173E-05,1,7415,-0,9466697,1,7415,0,2860151,1,7415,-0,1611353
0,1344808,1,393149E-05,1,74825,-0,8499885,1,74825,0,1047379,1,74825,-0,2699016,0,1344808,1,15816E-05,1,74825,-0,9426414,1,74825,0,2819867,1,74825,-0,169192
0,135,1,309224E-05,1,755,-0,8499885,1,755,0,1007095,1,755,-0,27393,0,135,7,888914E-06,1,755,-0,9466697,1,755,0,2900435,1,755,-0,1611353
0,1355192,1,15816E-05,1,76175,-0,8580453,1,76175,0,09265278,1,76175,-0,2819867,0,1355192,5,874724E-06,1,76175,-0,9466697,1,76175,0,2900435,1,76175,-0,1651637
0,1360385,1,12459E-05,1,7685,-0,866102,1,7685,0,09265278,1,7685,-0,2900435,0,1360385,5,874724E-06,1,7685,-0,9466697,1,7685,0,2900435,1,7685,-0,1530785
0,1365577,1,09102E-05,1,77525,-0,8580453,1,77525,0,1047379,1,77525,-0,2900435,0,1365577,5,539025E-06,1,77525,-0,9506981,1,77525,0,2940719,1,77525,-0,1611353
0,1370769,9,903106E-06,1,782,-0,8580453,1,782,0,1047379,1,782,-0,2900435,0,1370769,4,531929E-06,1,782,-0,9506981,1,782,0,2940719,1,782,-0,1611353
0,1375962,1,05745E-05,1,78875,-0,8499885,1,78875,0,1087663,1,78875,-0,2900435,0,1375962,3,356985E-06,1,78875,-0,9506981,1,78875,0,2940719,1,78875,-0,1611353
0,1381154,1,107805E-05,1,7955,-0,8459601,1,7955,0,1087663,1,7955,-0,2860151,0,1381154,3,189135E-06,1,7955,-0,9466697,1,7955,0,2860151,1,7955,-0,1651637
0,1386346,1,12459E-05,1,80225,-0,833875,1,80225,0,1087663,1,80225,-0,2819867,0,1386346,4,867628E-06,1,80225,-0,9466697,1,80225,0,2860151,1,80225,-0,1651637
0,1391539,1,19173E-05,1,809,-0,8419318,1,809,0,1127947,1,809,-0,2819867,0,1391539,6,210422E-06,1,809,-0,9386129,1,809,0,2819867,1,809,-0,169192
0,1396731,1,174945E-05,1,81575,-0,8499885,1,81575,0,1087663,1,81575,-0,2860151,0,1396731,7,553216E-06,1,81575,-0,9345846,1,81575,0,2779583,1,81575,-0,1772488
0,1401923,1,12459E-05,1,8225,-0,8540169,1,8225,0,1047379,1,8225,-0,2860151,0,1401923,8,89601E-06,1,8225,-0,9386129,1,8225,0,2819867,1,8225,-0,1772488
0,1407115,1,05745E-05,1,82925,-0,8499885,1,82925,0,1047379,1,82925,-0,2900435,0,1407115,7,888914E-06,1,82925,-0,9426414,1,82925,0,2819867,1,82925,-0,1853056
0,1412308,1,09102E-05,1,836,-0,8540169,1,836,0,1007095,1,836,-0,2940719,0,1412308,7,385367E-06,1,836,-0,9547265,1,836,0,2860151,1,836,-0,1772488
0,14175,1,225299E-05,1,84275,-0,8620737,1,84275,0,1047379,1,84275,-0,2940719,0,14175,8,560311E-06,1,84275,-0,9466697,1,84275,0,2860151,1,84275,-0,1732204
0,1422692,1,426719E-05,1,8495,-0,8540169,1,8495,0,1007095,1,8495,-0,2940719,0,1422692,7,888914E-06,1,8495,-0,9547265,1,8495,0,2900435,1,8495,-0,1732204
0,1427885,1,460288E-05,1,85625,-0,8499885,1,85625,0,09265278,1,85625,-0,2779583,0,1427885,6,210422E-06,1,85625,-0,9506981,1,85625,0,3021286,1,85625,-0,169192
0,1433077,1,376364E-05,1,863,-0,8499885,1,863,0,09265278,1,863,-0,27393,0,1433077,6,210422E-06,1,863,-0,9547265,1,863,0,2860151,1,863,-0,1651637
0,1438269,1,326009E-05,1,86975,-0,8540169,1,86975,0,09265278,1,86975,-0,2658732,0,1438269,6,210422E-06,1,86975,-0,9506981,1,86975,0,2981002,1,86975,-0,169192
0,1443462,1,326009E-05,1,8765,-0,8540169,1,8765,0,09668116,1,8765,-0,2658732,0,1443462,8,560311E-06,1,8765,-0,9466697,1,8765,0,2981002,1,8765,-0,1651637
0,1448654,1,326009E-05,1,88325,-0,8580453,1,88325,0,1007095,1,88325,-0,2618448,0,1448654,1,19173E-05,1,88325,-0,9386129,1,88325,0,3021286,1,88325,-0,1651637
0,1453846,1,326009E-05,1,89,-0,8580453,1,89,0,09668116,1,89,-0,2618448,0,1453846,1,19173E-05,1,89,-0,9345846,1,89,0,3021286,1,89,-0,1611353
0,1459038,1,12459E-05,1,89675,-0,8499885,1,89675,0,1007095,1,89675,-0,2618448,0,1459038,1,05745E-05,1,89675,-0,9265279,1,89675,0,3021286,1,89675,-0,1571069
0,1464231,1,05745E-05,1,9035,-0,8540169,1,9035,0,09668116,1,9035,-0,2618448,0,1464231,1,05745E-05,1,9035,-0,9305562,1,9035,0,2981002,1,9035,-0,1571069
0,1469423,1,359579E-05,1,91025,-0,8459601,1,91025,0,0886244,1,91025,-0,2658732,0,1469423,8,224613E-06,1,91025,-0,9305562,1,91025,0,3021286,1,91025,-0,1611353
0,1474615,1,493858E-05,1,917,-0,8459601,1,917,0,0886244,1,917,-0,2699016,0,1474615,4,531929E-06,1,917,-0,9305562,1,917,0,2940719,1,917,-0,1571069
0,1479808,1,426719E-05,1,92375,-0,8499885,1,92375,0,08459602,1,92375,-0,2779583,0,1479808,4,196231E-06,1,92375,-0,9224994,1,92375,0,2860151,1,92375,-0,1611353
0,1485,1,376364E-05,1,9305,-0,8499885,1,9305,0,0886244,1,9305,-0,2819867,0,1485,7,553216E-06,1,9305,-0,9265279,1,9305,0,2819867,1,9305,-0,1732204
0,1490192,1,292439E-05,1,93725,-0,8499885,1,93725,0,08459602,1,93725,-0,2860151,0,1490192,9,063859E-06,1,93725,-0,9345846,1,93725,0,2819867,1,93725,-0,169192
0,1495385,1,309224E-05,1,944,-0,8419318,1,944,0,09265278,1,944,-0,2900435,0,1495385,7,049668E-06,1,944,-0,9386129,1,944,0,27393,1,944,-0,1853056
0,1500577,1,359579E-05,1,95075,-0,8419318,1,95075,0,1007095,1,95075,-0,2900435,0,1500577,4,196231E-06,1,95075,-0,9426414,1,95075,0,27393,1,95075,-0,1812772
0,1505769,1,174945E-05,1,9575,-0,8459601,1,9575,0,1127947,1,9575,-0,2981002,0,1505769,5,539025E-06,1,9575,-0,9506981,1,9575,0,2699016,1,9575,-0,1853056
0,1510962,1,15816E-05,1,96425,-0,8459601,1,96425,0,1168231,1,96425,-0,2900435,0,1510962,3,860533E-06,1,96425,-0,9426414,1,96425,0,27393,1,96425,-0,1772488
0,1516154,1,326009E-05,1,971,-0,8419318,1,971,0,1208515,1,971,-0,2900435,0,1516154,1,678492E-06,1,971,-0,9506981,1,971,0,27393,1,971,-0,1772488
0,1521346,1,258869E-05,1,97775,-0,8499885,1,97775,0,1248798,1,97775,-0,2860151,0,1521346,1,846342E-06,1,97775,-0,9466697,1,97775,0,2819867,1,97775,-0,1732204
0,1526538,8,224613E-06,1,9845,-0,8540169,1,9845,0,1208515,1,9845,-0,2860151,0,1526538,2,517739E-06,1,9845,-0,9506981,1,9845,0,2779583,1,9845,-0,169192
0,1531731,6,210422E-06,1,99125,-0,8540169,1,99125,0,1208515,1,99125,-0,2819867,0,1531731,4,531929E-06,1,99125,-0,9547265,1,99125,0,2940719,1,99125,-0,1611353
0,1536923,7,217517E-06,1,998,-0,8620737,1,998,0,1168231,1,998,-0,2860151,0,1536923,5,874724E-06,1,998,-0,9587549,1,998,0,2900435,1,998,-0,1571069
0,1542115,9,903106E-06,2,00475,-0,8580453,2,00475,0,1127947,2,00475,-0,27393,0,1542115,4,196231E-06,2,00475,-0,9587549,2,00475,0,2940719,2,00475,-0,1490501
0,1547308,1,19173E-05,2,0115,-0,8540169,2,0115,0,1127947,2,0115,-0,2658732,0,1547308,3,021286E-06,2,0115,-0,9506981,2,0115,0,2981002,2,0115,-0,1450217
0,15525,1,15816E-05,2,01825,-0,8540169,2,01825,0,1087663,2,01825,-0,2658732,0,15525,4,531929E-06,2,01825,-0,9506981,2,01825,0,2940719,2,01825,-0,136965
0,1557692,1,12459E-05,2,025,-0,8499885,2,025,0,1047379,2,025,-0,2658732,0,1557692,5,874724E-06,2,025,-0,9466697,2,025,0,2940719,2,025,-0,1409934
0,1562885,9,903106E-06,2,03175,-0,8499885,2,03175,0,1007095,2,03175,-0,2618448,0,1562885,5,874724E-06,2,03175,-0,9426414,2,03175,0,2940719,2,03175,-0,1329366
0,1568077,8,224613E-06,2,0385,-0,8499885,2,0385,0,09265278,2,0385,-0,2658732,0,1568077,6,210422E-06,2,0385,-0,9345846,2,0385,0,2900435,2,0385,-0,136965
0,1573269,7,217517E-06,2,04525,-0,8499885,2,04525,0,09668116,2,04525,-0,2618448,0,1573269,9,231708E-06,2,04525,-0,9305562,2,04525,0,2860151,2,04525,-0,1450217
0,1578462,8,224613E-06,2,052,-0,8499885,2,052,0,0886244,2,052,-0,2658732,0,1578462,1,275654E-05,2,052,-0,9265279,2,052,0,2819867,2,052,-0,1490501
0,1583654,1,15816E-05,2,05875,-0,8540169,2,05875,0,08056764,2,05875,-0,27393,0,1583654,1,326009E-05,2,05875,-0,9305562,2,05875,0,2819867,2,05875,-0,1611353
0,1588846,1,426719E-05,2,0655,-0,8540169,2,0655,0,08459602,2,0655,-0,2699016,0,1588846,1,258869E-05,2,0655,-0,9345846,2,0655,0,2819867,2,0655,-0,1651637
0,1594038,1,426719E-05,2,07225,-0,8499885,2,07225,0,08459602,2,07225,-0,27393,0,1594038,1,225299E-05,2,07225,-0,9345846,2,07225,0,2860151,2,07225,-0,1651637
0,1599231,1,426719E-05,2,079,-0,8580453,2,079,0,0886244,2,079,-0,2819867,0,1599231,1,309224E-05,2,079,-0,9466697,2,079,0,2860151,2,079,-0,169192
0,1604423,1,393149E-05,2,08575,-0,8540169,2,08575,0,0886244,2,08575,-0,2819867,0,1604423,1,409934E-05,2,08575,-0,9466697,2,08575,0,2860151,2,08575,-0,169192
0,1609615,1,393149E-05,2,0925,-0,8580453,2,0925,0,1007095,2,0925,-0,2860151,0,1609615,1,460288E-05,2,0925,-0,9466697,2,0925,0,2860151,2,0925,-0,1732204
0,1614808,1,493858E-05,2,09925,-0,8540169,2,09925,0,1007095,2,09925,-0,2860151,0,1614808,1,275654E-05,2,09925,-0,9506981,2,09925,0,2940719,2,09925,-0,1812772
0,162,1,460288E-05,2,106,-0,8580453,2,106,0,1047379,2,106,-0,2981002,0,162,1,107805E-05,2,106,-0,9426414,2,106,0,2940719,2,106,-0,1812772
0,1625192,1,275654E-05,2,11275,-0,8580453,2,11275,0,1047379,2,11275,-0,2900435,0,1625192,1,05745E-05,2,11275,-0,9506981,2,11275,0,2981002,2,11275,-0,1812772
0,1630385,1,09102E-05,2,1195,-0,8580453,2,1195,0,1047379,2,1195,-0,2900435,0,1630385,8,89601E-06,2,1195,-0,9466697,2,1195,0,3021286,2,1195,-0,1853056
0,1635577,1,02388E-05,2,12625,-0,8580453,2,12625,0,1047379,2,12625,-0,2900435,0,1635577,9,567407E-06,2,12625,-0,9466697,2,12625,0,3021286,2,12625,-0,1853056
0,1640769,7,888914E-06,2,133,-0,8499885,2,133,0,1047379,2,133,-0,2860151,0,1640769,9,231708E-06,2,133,-0,9426414,2,133,0,3021286,2,133,-0,1812772
0,1645962,5,874724E-06,2,13975,-0,8499885,2,13975,0,1047379,2,13975,-0,2860151,0,1645962,6,210422E-06,2,13975,-0,9305562,2,13975,0,3021286,2,13975,-0,1853056
0,1651154,5,874724E-06,2,1465,-0,8459601,2,1465,0,1007095,2,1465,-0,2860151,0,1651154,6,210422E-06,2,1465,-0,9345846,2,1465,0,2981002,2,1465,-0,1772488
0,1656346,7,721065E-06,2,15325,-0,8499885,2,15325,0,1007095,2,15325,-0,2860151,0,1656346,8,89601E-06,2,15325,-0,9345846,2,15325,0,2940719,2,15325,-0,1732204
0,1661538,1,05745E-05,2,16,-0,8499885,2,16,0,09668116,2,16,-0,2860151,0,1661538,1,174945E-05,2,16,-0,9386129,2,16,0,3021286,2,16,-0,169192
0,1666731,1,05745E-05,2,16675,-0,8540169,2,16675,0,09668116,2,16675,-0,2860151,0,1666731,1,376364E-05,2,16675,-0,9345846,2,16675,0,2981002,2,16675,-0,169192
0,1671923,9,903106E-06,2,1735,-0,8499885,2,1735,0,1007095,2,1735,-0,2779583,0,1671923,1,292439E-05,2,1735,-0,9305562,2,1735,0,2981002,2,1735,-0,1651637
0,1677115,1,02388E-05,2,18025,-0,8499885,2,18025,0,09668116,2,18025,-0,2819867,0,1677115,9,399557E-06,2,18025,-0,9345846,2,18025,0,2900435,2,18025,-0,169192
0,1682308,1,040665E-05,2,187,-0,8499885,2,187,0,09668116,2,187,-0,2779583,0,1682308,6,881819E-06,2,187,-0,9345846,2,187,0,2860151,2,187,-0,1651637
0,16875,9,231708E-06,2,19375,-0,8540169,2,19375,0,09668116,2,19375,-0,27393,0,16875,6,881819E-06,2,19375,-0,9386129,2,19375,0,27393,2,19375,-0,1651637
0,1692692,7,888914E-06,2,2005,-0,8540169,2,2005,0,09265278,2,2005,-0,27393,0,1692692,8,224613E-06,2,2005,-0,9345846,2,2005,0,27393,2,2005,-0,1611353
0,1697885,7,888914E-06,2,20725,-0,8540169,2,20725,0,09265278,2,20725,-0,2779583,0,1697885,1,02388E-05,2,20725,-0,9426414,2,20725,0,27393,2,20725,-0,169192
0,1703077,7,553216E-06,2,214,-0,8540169,2,214,0,09265278,2,214,-0,27393,0,1703077,1,12459E-05,2,214,-0,9426414,2,214,0,2819867,2,214,-0,1732204
0,1708269,8,224613E-06,2,22075,-0,8580453,2,22075,0,0886244,2,22075,-0,2779583,0,1708269,1,225299E-05,2,22075,-0,9547265,2,22075,0,2860151,2,22075,-0,1732204
0,1713462,1,05745E-05,2,2275,-0,8580453,2,2275,0,08459602,2,2275,-0,2819867,0,1713462,1,225299E-05,2,2275,-0,9547265,2,2275,0,2900435,2,2275,-0,1812772
0,1718654,1,12459E-05,2,23425,-0,8620737,2,23425,0,09265278,2,23425,-0,2860151,0,1718654,1,007095E-05,2,23425,-0,9547265,2,23425,0,2940719,2,23425,-0,1732204
0,1723846,1,12459E-05,2,241,-0,8580453,2,241,0,0886244,2,241,-0,2819867,0,1723846,9,231708E-06,2,241,-0,9547265,2,241,0,2900435,2,241,-0,1772488
0,1729039,1,12459E-05,2,24775,-0,8540169,2,24775,0,09265278,2,24775,-0,2860151,0,1729039,1,292439E-05,2,24775,-0,9547265,2,24775,0,2940719,2,24775,-0,1732204
0,1734231,1,12459E-05,2,2545,-0,8499885,2,2545,0,09265278,2,2545,-0,2819867,0,1734231,1,359579E-05,2,2545,-0,9466697,2,2545,0,2900435,2,2545,-0,1732204
0,1739423,1,107805E-05,2,26125,-0,8499885,2,26125,0,09265278,2,26125,-0,2779583,0,1739423,1,02388E-05,2,26125,-0,9386129,2,26125,0,2981002,2,26125,-0,1651637
0,1744615,1,107805E-05,2,268,-0,8499885,2,268,0,09668116,2,268,-0,2779583,0,1744615,7,888914E-06,2,268,-0,9386129,2,268,0,2860151,2,268,-0,169192
0,1749808,1,09102E-05,2,27475,-0,8459601,2,27475,0,09668116,2,27475,-0,2779583,0,1749808,7,553216E-06,2,27475,-0,9386129,2,27475,0,2940719,2,27475,-0,1732204
0,1755,1,09102E-05,2,2815,-0,8540169,2,2815,0,1007095,2,2815,-0,27393,0,1755,1,040665E-05,2,2815,-0,9386129,2,2815,0,2900435,2,2815,-0,1732204
0,1760192,1,12459E-05,2,28825,-0,8459601,2,28825,0,1047379,2,28825,-0,2779583,0,1760192,1,242084E-05,2,28825,-0,9386129,2,28825,0,2981002,2,28825,-0,169192
0,1765385,1,275654E-05,2,295,-0,8459601,2,295,0,1127947,2,295,-0,2819867,0,1765385,1,19173E-05,2,295,-0,9386129,2,295,0,2940719,2,295,-0,169192
0,1770577,1,326009E-05,2,30175,-0,8499885,2,30175,0,1007095,2,30175,-0,2860151,0,1770577,9,903106E-06,2,30175,-0,9386129,2,30175,0,2940719,2,30175,-0,1611353
0,1775769,1,326009E-05,2,3085,-0,8580453,2,3085,0,09668116,2,3085,-0,2860151,0,1775769,7,721065E-06,2,3085,-0,9386129,2,3085,0,2940719,2,3085,-0,1732204
0,1780962,1,359579E-05,2,31525,-0,8540169,2,31525,0,09668116,2,31525,-0,2819867,0,1780962,7,049668E-06,2,31525,-0,9426414,2,31525,0,2981002,2,31525,-0,1651637
0,1786154,1,493858E-05,2,322,-0,8540169,2,322,0,09668116,2,322,-0,2860151,0,1786154,7,553216E-06,2,322,-0,9466697,2,322,0,2940719,2,322,-0,1651637
0,1791346,1,460288E-05,2,32875,-0,8499885,2,32875,0,09668116,2,32875,-0,2779583,0,1791346,8,89601E-06,2,32875,-0,9386129,2,32875,0,3021286,2,32875,-0,1651637
0,1796539,1,359579E-05,2,3355,-0,8499885,2,3355,0,09668116,2,3355,-0,27393,0,1796539,9,231708E-06,2,3355,-0,9426414,2,3355,0,2981002,2,3355,-0,169192
0,1801731,1,275654E-05,2,34225,-0,8499885,2,34225,0,1087663,2,34225,-0,2699016,0,1801731,9,567407E-06,2,34225,-0,9386129,2,34225,0,2981002,2,34225,-0,169192
0,1806923,1,208515E-05,2,349,-0,8540169,2,349,0,1087663,2,349,-0,27393,0,1806923,1,225299E-05,2,349,-0,9466697,2,349,0,2940719,2,349,-0,169192
0,1812115,1,225299E-05,2,35575,-0,8580453,2,35575,0,1087663,2,35575,-0,27393,0,1812115,1,510643E-05,2,35575,-0,9466697,2,35575,0,2900435,2,35575,-0,169192
0,1817308,1,242084E-05,2,3625,-0,8580453,2,3625,0,1047379,2,3625,-0,2860151,0,1817308,1,359579E-05,2,3625,-0,9426414,2,3625,0,2900435,2,3625,-0,1772488
0,18225,1,309224E-05,2,36925,-0,8580453,2,36925,0,1047379,2,36925,-0,2860151,0,18225,1,174945E-05,2,36925,-0,9426414,2,36925,0,2900435,2,36925,-0,1812772
0,1827692,1,326009E-05,2,376,-0,8580453,2,376,0,09668116,2,376,-0,2981002,0,1827692,1,12459E-05,2,376,-0,9466697,2,376,0,2940719,2,376,-0,1812772
0,1832885,1,12459E-05,2,38275,-0,8580453,2,38275,0,1007095,2,38275,-0,2860151,0,1832885,1,12459E-05,2,38275,-0,9506981,2,38275,0,2981002,2,38275,-0,1732204
0,1838077,8,392462E-06,2,3895,-0,8620737,2,3895,0,09668116,2,3895,-0,2819867,0,1838077,9,735257E-06,2,3895,-0,9587549,2,3895,0,2981002,2,3895,-0,1651637
0,1843269,9,063859E-06,2,39625,-0,8620737,2,39625,0,09668116,2,39625,-0,2658732,0,1843269,7,049668E-06,2,39625,-0,9587549,2,39625,0,3021286,2,39625,-0,1611353
0,1848462,1,225299E-05,2,403,-0,8620737,2,403,0,09668116,2,403,-0,2658732,0,1848462,4,028382E-06,2,403,-0,9547265,2,403,0,2981002,2,403,-0,1571069
0,1853654,1,359579E-05,2,40975,-0,8620737,2,40975,0,1007095,2,40975,-0,2537881,0,1853654,1,174945E-06,2,40975,-0,9547265,2,40975,0,2981002,2,40975,-0,1490501
0,1858846,1,326009E-05,2,4165,-0,866102,2,4165,0,09668116,2,4165,-0,2578164,0,1858846,1,678492E-06,2,4165,-0,9506981,2,4165,0,3021286,2,4165,-0,1450217
0,1864039,1,174945E-05,2,42325,-0,8620737,2,42325,0,1047379,2,42325,-0,2578164,0,1864039,3,189135E-06,2,42325,-0,9506981,2,42325,0,3101854,2,42325,-0,1490501
0,1869231,9,231708E-06,2,43,-0,8580453,2,43,0,1087663,2,43,-0,2618448,0,1869231,3,524834E-06,2,43,-0,9426414,2,43,0,3021286,2,43,-0,1490501
0,1874423,7,888914E-06,2,43675,-0,8620737,2,43675,0,1007095,2,43675,-0,2658732,0,1874423,4,699778E-06,2,43675,-0,9426414,2,43675,0,2981002,2,43675,-0,1450217
0,1879615,8,224613E-06,2,4435,-0,8580453,2,4435,0,1007095,2,4435,-0,2699016,0,1879615,8,89601E-06,2,4435,-0,9345846,2,4435,0,2981002,2,4435,-0,1571069
0,1884808,9,735257E-06,2,45025,-0,8580453,2,45025,0,1007095,2,45025,-0,27393,0,1884808,1,242084E-05,2,45025,-0,9345846,2,45025,0,2940719,2,45025,-0,1490501
0,189,9,903106E-06,2,457,-0,8499885,2,457,0,1047379,2,457,-0,2779583,0,189,1,09102E-05,2,457,-0,9305562,2,457,0,2900435,2,457,-0,1611353
0,1895192,8,728161E-06,2,46375,-0,8419318,2,46375,0,1007095,2,46375,-0,2819867,0,1895192,1,02388E-05,2,46375,-0,9305562,2,46375,0,2900435,2,46375,-0,1611353
0,1900385,1,040665E-05,2,4705,-0,8419318,2,4705,0,09668116,2,4705,-0,2819867,0,1900385,1,05745E-05,2,4705,-0,9386129,2,4705,0,2860151,2,4705,-0,1611353
0,1905577,1,19173E-05,2,47725,-0,8379034,2,47725,0,09265278,2,47725,-0,27393,0,1905577,9,231708E-06,2,47725,-0,9345846,2,47725,0,2860151,2,47725,-0,169192
0,1910769,9,903106E-06,2,484,-0,833875,2,484,0,09265278,2,484,-0,2819867,0,1910769,7,385367E-06,2,484,-0,9305562,2,484,0,2860151,2,484,-0,1732204
0,1915962,7,888914E-06,2,49075,-0,8379034,2,49075,0,0886244,2,49075,-0,27393,0,1915962,5,203327E-06,2,49075,-0,9386129,2,49075,0,2860151,2,49075,-0,1772488
0,1921154,7,888914E-06,2,4975,-0,8419318,2,4975,0,0886244,2,4975,-0,27393,0,1921154,5,706875E-06,2,4975,-0,9345846,2,4975,0,2940719,2,4975,-0,1812772
0,1926346,9,735257E-06,2,50425,-0,8459601,2,50425,0,0886244,2,50425,-0,27393,0,1926346,7,888914E-06,2,50425,-0,9345846,2,50425,0,2940719,2,50425,-0,1853056
0,1931538,1,05745E-05,2,511,-0,8499885,2,511,0,08459602,2,511,-0,2819867,0,1931538,1,007095E-05,2,511,-0,9386129,2,511,0,2940719,2,511,-0,1812772
0,1936731,1,02388E-05,2,51775,-0,8580453,2,51775,0,0886244,2,51775,-0,27393,0,1936731,1,15816E-05,2,51775,-0,9426414,2,51775,0,2900435,2,51775,-0,1772488
0,1941923,1,05745E-05,2,5245,-0,8620737,2,5245,0,08459602,2,5245,-0,2779583,0,1941923,9,735257E-06,2,5245,-0,9466697,2,5245,0,2900435,2,5245,-0,169192
0,1947115,1,225299E-05,2,53125,-0,866102,2,53125,0,0886244,2,53125,-0,2779583,0,1947115,5,539025E-06,2,53125,-0,9466697,2,53125,0,2940719,2,53125,-0,1732204
0,1952308,1,19173E-05,2,538,-0,8620737,2,538,0,09265278,2,538,-0,2819867,0,1952308,3,189135E-06,2,538,-0,9506981,2,538,0,2981002,2,538,-0,1651637
0,19575,1,05745E-05,2,54475,-0,8701304,2,54475,0,09265278,2,54475,-0,2779583,0,19575,6,210422E-06,2,54475,-0,9506981,2,54475,0,2981002,2,54475,-0,1651637
0,1962692,1,15816E-05,2,5515,-0,866102,2,5515,0,09668116,2,5515,-0,2779583,0,1962692,1,02388E-05,2,5515,-0,9506981,2,5515,0,2981002,2,5515,-0,1611353
0,1967885,1,174945E-05,2,55825,-0,866102,2,55825,0,1007095,2,55825,-0,27393,0,1967885,1,376364E-05,2,55825,-0,9506981,2,55825,0,3021286,2,55825,-0,1651637
0,1973077,1,040665E-05,2,565,-0,8540169,2,565,0,1007095,2,565,-0,2779583,0,1973077,1,326009E-05,2,565,-0,9506981,2,565,0,2981002,2,565,-0,1611353
0,1978269,1,107805E-05,2,57175,-0,8540169,2,57175,0,1047379,2,57175,-0,2779583,0,1978269,1,107805E-05,2,57175,-0,9466697,2,57175,0,2940719,2,57175,-0,1611353
0,1983462,1,02388E-05,2,5785,-0,8499885,2,5785,0,1007095,2,5785,-0,2779583,0,1983462,8,560311E-06,2,5785,-0,9426414,2,5785,0,2940719,2,5785,-0,1571069
0,1988654,9,903106E-06,2,58525,-0,8499885,2,58525,0,1007095,2,58525,-0,2860151,0,1988654,6,881819E-06,2,58525,-0,9386129,2,58525,0,2940719,2,58525,-0,1530785
0,1993846,1,12459E-05,2,592,-0,8540169,2,592,0,08459602,2,592,-0,2779583,0,1993846,9,567407E-06,2,592,-0,9426414,2,592,0,2900435,2,592,-0,1571069
0,1999038,1,15816E-05,2,59875,-0,8540169,2,59875,0,0886244,2,59875,-0,2819867,0,1999038,1,15816E-05,2,59875,-0,9345846,2,59875,0,2900435,2,59875,-0,1571069
0,2004231,1,258869E-05,2,6055,-0,8540169,2,6055,0,08056764,2,6055,-0,2819867,0,2004231,8,728161E-06,2,6055,-0,9386129,2,6055,0,2860151,2,6055,-0,169192
0,2009423,1,326009E-05,2,61225,-0,8540169,2,61225,0,07653925,2,61225,-0,2779583,0,2009423,7,217517E-06,2,61225,-0,9386129,2,61225,0,2860151,2,61225,-0,169192
0,2014615,1,275654E-05,2,619,-0,8580453,2,619,0,06848249,2,619,-0,2819867,0,2014615,6,210422E-06,2,619,-0,9466697,2,619,0,2860151,2,619,-0,1732204
0,2019808,1,309224E-05,2,62575,-0,8459601,2,62575,0,06848249,2,62575,-0,2819867,0,2019808,4,36408E-06,2,62575,-0,9466697,2,62575,0,2940719,2,62575,-0,169192
0,2025,1,326009E-05,2,6325,-0,8419318,2,6325,0,07251087,2,6325,-0,27393,0,2025,4,699778E-06,2,6325,-0,9506981,2,6325,0,2940719,2,6325,-0,1732204
0,2030192,1,359579E-05,2,63925,-0,833875,2,63925,0,08056764,2,63925,-0,2699016,0,2030192,6,378271E-06,2,63925,-0,9426414,2,63925,0,2940719,2,63925,-0,1812772
0,2035385,1,443503E-05,2,646,-0,8217899,2,646,0,08459602,2,646,-0,2658732,0,2035385,6,54612E-06,2,646,-0,9386129,2,646,0,2981002,2,646,-0,1893339
0,2040577,1,409934E-05,2,65275,-0,8217899,2,65275,0,08459602,2,65275,-0,2578164,0,2040577,8,392462E-06,2,65275,-0,9305562,2,65275,0,2981002,2,65275,-0,1772488
0,2045769,1,460288E-05,2,6595,-0,8217899,2,6595,0,09668116,2,6595,-0,2537881,0,2045769,1,12459E-05,2,6595,-0,9224994,2,6595,0,2981002,2,6595,-0,1772488
0,2050962,1,594568E-05,2,66625,-0,833875,2,66625,0,1007095,2,66625,-0,2658732,0,2050962,1,242084E-05,2,66625,-0,9265279,2,66625,0,3101854,2,66625,-0,1611353
0,2056154,1,292439E-05,2,673,-0,8419318,2,673,0,1047379,2,673,-0,2578164,0,2056154,1,12459E-05,2,673,-0,9224994,2,673,0,3101854,2,673,-0,1571069
0,2061346,8,224613E-06,2,67975,-0,8499885,2,67975,0,1047379,2,67975,-0,2578164,0,2061346,7,888914E-06,2,67975,-0,9386129,2,67975,0,3182422,2,67975,-0,1450217
0,2066538,6,54612E-06,2,6865,-0,8580453,2,6865,0,1047379,2,6865,-0,2537881,0,2066538,6,210422E-06,2,6865,-0,9426414,2,6865,0,3142138,2,6865,-0,1329366
0,2071731,6,881819E-06,2,69325,-0,8580453,2,69325,0,1087663,2,69325,-0,2618448,0,2071731,7,049668E-06,2,69325,-0,9466697,2,69325,0,3142138,2,69325,-0,1289082
0,2076923,7,217517E-06,2,7,-0,8620737,2,7,0,1087663,2,7,-0,2618448,0,2076923,6,881819E-06,2,7,-0,9506981,2,7,0,3021286,2,7,-0,1248798
0,2082115,9,567407E-06,2,70675,-0,8701304,2,70675,0,1087663,2,70675,-0,2618448,0,2082115,6,042573E-06,2,70675,-0,9587549,2,70675,0,306157,2,70675,-0,1289082
0,2087308,1,12459E-05,2,7135,-0,8701304,2,7135,0,1087663,2,7135,-0,2658732,0,2087308,5,203327E-06,2,7135,-0,9587549,2,7135,0,306157,2,7135,-0,136965
0,20925,9,735257E-06,2,72025,-0,8741588,2,72025,0,1087663,2,72025,-0,2699016,0,20925,5,203327E-06,2,72025,-0,9547265,2,72025,0,306157,2,72025,-0,1409934
0,2097692,7,553216E-06,2,727,-0,8701304,2,727,0,1087663,2,727,-0,27393,0,2097692,7,553216E-06,2,727,-0,9547265,2,727,0,306157,2,727,-0,1530785
0,2102885,8,560311E-06,2,73375,-0,866102,2,73375,0,1007095,2,73375,-0,2779583,0,2102885,9,063859E-06,2,73375,-0,9466697,2,73375,0,3021286,2,73375,-0,1571069
0,2108077,1,174945E-05,2,7405,-0,866102,2,7405,0,1007095,2,7405,-0,2860151,0,2108077,9,063859E-06,2,7405,-0,9466697,2,7405,0,2981002,2,7405,-0,169192
0,2113269,1,426719E-05,2,74725,-0,8781872,2,74725,0,09668116,2,74725,-0,2981002,0,2113269,8,89601E-06,2,74725,-0,9426414,2,74725,0,2940719,2,74725,-0,169192
0,2118462,1,460288E-05,2,754,-0,8862439,2,754,0,09668116,2,754,-0,3021286,0,2118462,9,903106E-06,2,754,-0,9506981,2,754,0,2860151,2,754,-0,1812772
0,2123654,1,426719E-05,2,76075,-0,8983291,2,76075,0,09668116,2,76075,-0,3021286,0,2123654,1,040665E-05,2,76075,-0,9587549,2,76075,0,2779583,2,76075,-0,169192
0,2128846,1,443503E-05,2,7675,-0,9184711,2,7675,0,09265278,2,7675,-0,3101854,0,2128846,7,721065E-06,2,7675,-0,9748684,2,7675,0,2658732,2,7675,-0,1732204
0,2134039,1,225299E-05,2,77425,-0,9265279,2,77425,0,08459602,2,77425,-0,3142138,0,2134039,5,203327E-06,2,77425,-0,9909819,2,77425,0,2578164,2,77425,-0,1893339
0,2139231,9,231708E-06,2,781,-0,9265279,2,781,0,08459602,2,781,-0,3222705,0,2139231,7,721065E-06,2,781,-0,9950103,2,781,0,2578164,2,781,-0,2014191
0,2144423,7,888914E-06,2,78775,-0,9104142,2,78775,0,08459602,2,78775,-0,3222705,0,2144423,1,02388E-05,2,78775,-0,9990387,2,78775,0,2618448,2,78775,-0,2054475
0,2149615,9,231708E-06,2,7945,-0,8902723,2,7945,0,08056764,2,7945,-0,3182422,0,2149615,8,224613E-06,2,7945,-0,9909819,2,7945,0,2699016,2,7945,-0,2175326
0,2154808,1,02388E-05,2,80125,-0,8741588,2,80125,0,08459602,2,80125,-0,3182422,0,2154808,6,042573E-06,2,80125,-0,9627832,2,80125,0,2819867,2,80125,-0,2175326
0,216,1,02388E-05,2,808,-0,8580453,2,808,0,09265278,2,808,-0,3222705,0,216,5,874724E-06,2,808,-0,9506981,2,808,0,2860151,2,808,-0,2255894
0,2165192,9,231708E-06,2,81475,-0,8419318,2,81475,0,1007095,2,81475,-0,3142138,0,2165192,5,203327E-06,2,81475,-0,9386129,2,81475,0,2940719,2,81475,-0,2135042
0,2170385,7,888914E-06,2,8215,-0,8379034,2,8215,0,1047379,2,8215,-0,3101854,0,2170385,4,531929E-06,2,8215,-0,9265279,2,8215,0,2981002,2,8215,-0,2135042
0,2175577,5,874724E-06,2,82825,-0,8298466,2,82825,0,1047379,2,82825,-0,3101854,0,2175577,3,524834E-06,2,82825,-0,9144427,2,82825,0,2981002,2,82825,-0,2014191
0,2180769,4,531929E-06,2,835,-0,8217899,2,835,0,1007095,2,835,-0,3021286,0,2180769,3,189135E-06,2,835,-0,9184711,2,835,0,2981002,2,835,-0,1812772
0,2185962,7,049668E-06,2,84175,-0,8177615,2,84175,0,1007095,2,84175,-0,2940719,0,2185962,3,189135E-06,2,84175,-0,9104142,2,84175,0,2981002,2,84175,-0,1732204
0,2191154,8,224613E-06,2,8485,-0,8137331,2,8485,0,0886244,2,8485,-0,2819867,0,2191154,3,021286E-06,2,8485,-0,9144427,2,8485,0,2940719,2,8485,-0,1611353
0,2196346,8,560311E-06,2,85525,-0,8097047,2,85525,0,07653925,2,85525,-0,2819867,0,2196346,2,853437E-06,2,85525,-0,9104142,2,85525,0,2900435,2,85525,-0,1530785
0,2201539,7,888914E-06,2,862,-0,8137331,2,862,0,06042573,2,862,-0,2860151,0,2201539,3,189135E-06,2,862,-0,9104142,2,862,0,2860151,2,862,-0,1571069
0,2206731,6,210422E-06,2,86875,-0,8177615,2,86875,0,06042573,2,86875,-0,2860151,0,2206731,2,853437E-06,2,86875,-0,9063858,2,86875,0,2940719,2,86875,-0,1571069
0,2211923,6,881819E-06,2,8755,-0,8177615,2,8755,0,05639734,2,8755,-0,2900435,0,2211923,2,014191E-06,2,8755,-0,9104142,2,8755,0,2819867,2,8755,-0,169192
0,2217115,8,89601E-06,2,88225,-0,8177615,2,88225,0,05639734,2,88225,-0,2860151,0,2217115,-8,392462E-07,2,88225,-0,9144427,2,88225,0,2779583,2,88225,-0,1651637
0,2222308,1,12459E-05,2,889,-0,8177615,2,889,0,06445411,2,889,-0,2819867,0,2222308,-1,678492E-07,2,889,-0,9104142,2,889,0,27393,2,889,-0,1772488
0,22275,1,05745E-05,2,89575,-0,8097047,2,89575,0,07251087,2,89575,-0,2779583,0,22275,3,021286E-06,2,89575,-0,9063858,2,89575,0,27393,2,89575,-0,1853056
0,2232692,9,903106E-06,2,9025,-0,8097047,2,9025,0,08056764,2,9025,-0,2699016,0,2232692,6,210422E-06,2,9025,-0,9104142,2,9025,0,2618448,2,9025,-0,1933623
0,2237885,1,02388E-05,2,90925,-0,801648,2,90925,0,08459602,2,90925,-0,2699016,0,2237885,7,721065E-06,2,90925,-0,9063858,2,90925,0,2618448,2,90925,-0,2014191
0,2243077,1,02388E-05,2,916,-0,8097047,2,916,0,08056764,2,916,-0,2699016,0,2243077,6,881819E-06,2,916,-0,9104142,2,916,0,2699016,2,916,-0,2094758
0,2248269,1,09102E-05,2,92275,-0,8097047,2,92275,0,08459602,2,92275,-0,27393,0,2248269,4,36408E-06,2,92275,-0,9224994,2,92275,0,2779583,2,92275,-0,2094758
0,2253462,1,258869E-05,2,9295,-0,8177615,2,9295,0,0886244,2,9295,-0,27393,0,2253462,2,517739E-06,2,9295,-0,9265279,2,9295,0,2940719,2,9295,-0,2175326
0,2258654,1,376364E-05,2,93625,-0,8177615,2,93625,0,09265278,2,93625,-0,2779583,0,2258654,3,692683E-06,2,93625,-0,9345846,2,93625,0,3021286,2,93625,-0,2014191
0,2263846,1,460288E-05,2,943,-0,8137331,2,943,0,1007095,2,943,-0,27393,0,2263846,6,54612E-06,2,943,-0,9345846,2,943,0,3182422,2,943,-0,1812772
0,2269039,1,275654E-05,2,94975,-0,8056763,2,94975,0,1087663,2,94975,-0,2618448,0,2269039,9,063859E-06,2,94975,-0,9386129,2,94975,0,3262989,2,94975,-0,169192
0,2274231,9,903106E-06,2,9565,-0,8097047,2,9565,0,1127947,2,9565,-0,2578164,0,2274231,8,89601E-06,2,9565,-0,9345846,2,9565,0,3343557,2,9565,-0,1490501
0,2279423,8,392462E-06,2,96325,-0,8137331,2,96325,0,1168231,2,96325,-0,2497597,0,2279423,7,888914E-06,2,96325,-0,9305562,2,96325,0,3383841,2,96325,-0,1329366
0,2284615,8,392462E-06,2,97,-0,8258182,2,97,0,1289082,2,97,-0,2417029,0,2284615,7,888914E-06,2,97,-0,9345846,2,97,0,3343557,2,97,-0,1208515
0,2289808,9,567407E-06,2,97675,-0,8459601,2,97675,0,1329366,2,97675,-0,2457313,0,2289808,9,231708E-06,2,97675,-0,9426414,2,97675,0,3343557,2,97675,-0,1007095
0,2295,1,040665E-05,2,9835,-0,8701304,2,9835,0,1289082,2,9835,-0,2417029,0,2295,9,567407E-06,2,9835,-0,9547265,2,9835,0,3262989,2,9835,-0,09265278
0,2300192,1,05745E-05,2,99025,-0,8902723,2,99025,0,1289082,2,99025,-0,2417029,0,2300192,8,728161E-06,2,99025,-0,9668117,2,99025,0,3222705,2,99025,-0,0886244
0,2305385,1,258869E-05,2,997,-0,8983291,2,997,0,1248798,2,997,-0,2417029,0,2305385,8,392462E-06,2,997,-0,9668117,2,997,0,306157,2,997,-0,09265278
0,2310577,1,393149E-05,3,00375,-0,9063858,3,00375,0,1248798,3,00375,-0,2417029,0,2310577,1,12459E-05,3,00375,-0,9829252,3,00375,0,2940719,3,00375,-0,09265278
0,2315769,1,376364E-05,3,0105,-0,9144427,3,0105,0,1208515,3,0105,-0,2497597,0,2315769,1,527428E-05,3,0105,-0,9909819,3,0105,0,2860151,3,0105,-0,1087663
0,2320962,1,376364E-05,3,01725,-0,9063858,3,01725,0,1168231,3,01725,-0,2537881,0,2320962,1,695277E-05,3,01725,-0,9909819,3,01725,0,2779583,3,01725,-0,1047379
0,2326154,1,493858E-05,3,024,-0,9104142,3,024,0,1127947,3,024,-0,2618448,0,2326154,1,527428E-05,3,024,-0,9909819,3,024,0,2578164,3,024,-0,1208515
0,2331346,1,661708E-05,3,03075,-0,9063858,3,03075,0,1127947,3,03075,-0,2699016,0,2331346,1,393149E-05,3,03075,-0,9869535,3,03075,0,2537881,3,03075,-0,1329366
0,2336538,1,728847E-05,3,0375,-0,9144427,3,0375,0,1087663,3,0375,-0,2779583,0,2336538,1,527428E-05,3,0375,-0,9909819,3,0375,0,2497597,3,0375,-0,1530785
0,2341731,1,577783E-05,3,04425,-0,9063858,3,04425,0,1087663,3,04425,-0,2860151,0,2341731,1,493858E-05,3,04425,-0,9829252,3,04425,0,2417029,3,04425,-0,1651637
0,2346923,1,409934E-05,3,051,-0,9063858,3,051,0,1007095,3,051,-0,3021286,0,2346923,1,309224E-05,3,051,-0,9869535,3,051,0,2537881,3,051,-0,1651637
0,2352115,1,393149E-05,3,05775,-0,9023575,3,05775,0,09668116,3,05775,-0,3021286,0,2352115,1,15816E-05,3,05775,-0,9829252,3,05775,0,2578164,3,05775,-0,1772488
0,2357308,1,393149E-05,3,0645,-0,8943007,3,0645,0,0886244,3,0645,-0,3101854,0,2357308,1,12459E-05,3,0645,-0,9829252,3,0645,0,2618448,3,0645,-0,1812772
0,23625,1,275654E-05,3,07125,-0,8862439,3,07125,0,0886244,3,07125,-0,306157,0,23625,1,09102E-05,3,07125,-0,9788967,3,07125,0,2618448,3,07125,-0,1812772
0,2367692,1,242084E-05,3,078,-0,8822156,3,078,0,0886244,3,078,-0,3182422,0,2367692,1,05745E-05,3,078,-0,9829252,3,078,0,2618448,3,078,-0,1853056
0,2372885,1,426719E-05,3,08475,-0,8781872,3,08475,0,08459602,3,08475,-0,3182422,0,2372885,1,02388E-05,3,08475,-0,97084,3,08475,0,27393,3,08475,-0,1893339
0,2378077,1,443503E-05,3,0915,-0,8781872,3,0915,0,08459602,3,0915,-0,3182422,0,2378077,1,05745E-05,3,0915,-0,9627832,3,0915,0,2819867,3,0915,-0,1853056
0,2383269,1,426719E-05,3,09825,-0,8741588,3,09825,0,08056764,3,09825,-0,3182422,0,2383269,1,376364E-05,3,09825,-0,9627832,3,09825,0,2819867,3,09825,-0,1933623
0,2388462,1,594568E-05,3,105,-0,8822156,3,105,0,07653925,3,105,-0,3182422,0,2388462,1,393149E-05,3,105,-0,9547265,3,105,0,2860151,3,105,-0,1973907
0,2393654,1,460288E-05,3,11175,-0,8781872,3,11175,0,08459602,3,11175,-0,3182422,0,2393654,1,107805E-05,3,11175,-0,9506981,3,11175,0,2981002,3,11175,-0,2014191
0,2398846,1,040665E-05,3,1185,-0,8741588,3,1185,0,08459602,3,1185,-0,3222705,0,2398846,1,05745E-05,3,1185,-0,9466697,3,1185,0,2940719,3,1185,-0,2094758
0,2404038,9,063859E-06,3,12525,-0,8620737,3,12525,0,0886244,3,12525,-0,3262989,0,2404038,1,107805E-05,3,12525,-0,9345846,3,12525,0,2940719,3,12525,-0,2054475
0,2409231,1,15816E-05,3,132,-0,8580453,3,132,0,08056764,3,132,-0,3303273,0,2409231,9,903106E-06,3,132,-0,9305562,3,132,0,2860151,3,132,-0,2135042
0,2414423,1,393149E-05,3,13875,-0,8540169,3,13875,0,08056764,3,13875,-0,3262989,0,2414423,8,392462E-06,3,13875,-0,9265279,3,13875,0,2779583,3,13875,-0,221561
0,2419615,1,393149E-05,3,1455,-0,8499885,3,1455,0,07653925,3,1455,-0,3383841,0,2419615,9,063859E-06,3,1455,-0,9224994,3,1455,0,2860151,3,1455,-0,2175326
0,2424808,1,309224E-05,3,15225,-0,833875,3,15225,0,07653925,3,15225,-0,3383841,0,2424808,1,12459E-05,3,15225,-0,9184711,3,15225,0,2819867,3,15225,-0,2336462
0,243,1,242084E-05,3,159,-0,8258182,3,159,0,06848249,3,159,-0,3383841,0,243,1,258869E-05,3,159,-0,9144427,3,159,0,2779583,3,159,-0,2336462
0,2435192,1,02388E-05,3,16575,-0,8097047,3,16575,0,07251087,3,16575,-0,3343557,0,2435192,1,292439E-05,3,16575,-0,9063858,3,16575,0,27393,3,16575,-0,2296178
0,2440385,9,567407E-06,3,1725,-0,7855344,3,1725,0,07251087,3,1725,-0,3303273,0,2440385,1,376364E-05,3,1725,-0,9063858,3,1725,0,2699016,3,1725,-0,2497597
0,2445577,8,89601E-06,3,17925,-0,7774777,3,17925,0,07251087,3,17925,-0,3142138,0,2445577,1,141375E-05,3,17925,-0,8943007,3,17925,0,2699016,3,17925,-0,2457313
0,2450769,9,063859E-06,3,186,-0,7694209,3,186,0,07251087,3,186,-0,3101854,0,2450769,7,217517E-06,3,186,-0,8943007,3,186,0,27393,3,186,-0,2376745
0,2455962,8,89601E-06,3,19275,-0,7694209,3,19275,0,07653925,3,19275,-0,3021286,0,2455962,7,888914E-06,3,19275,-0,8902723,3,19275,0,2819867,3,19275,-0,2336462
0,2461154,7,888914E-06,3,1995,-0,7774777,3,1995,0,07653925,3,1995,-0,2940719,0,2461154,9,903106E-06,3,1995,-0,9023575,3,1995,0,2900435,3,1995,-0,2296178
0,2466346,8,89601E-06,3,20625,-0,7815061,3,20625,0,08056764,3,20625,-0,2779583,0,2466346,9,231708E-06,3,20625,-0,9023575,3,20625,0,2940719,3,20625,-0,2054475
0,2471538,1,225299E-05,3,213,-0,7935912,3,213,0,0886244,3,213,-0,2618448,0,2471538,1,05745E-05,3,213,-0,9184711,3,213,0,3021286,3,213,-0,1933623
0,2476731,1,292439E-05,3,21975,-0,8097047,3,21975,0,0886244,3,21975,-0,2578164,0,2476731,1,326009E-05,3,21975,-0,9265279,3,21975,0,3101854,3,21975,-0,1732204
0,2481923,1,15816E-05,3,2265,-0,8217899,3,2265,0,09265278,3,2265,-0,2537881,0,2481923,1,107805E-05,3,2265,-0,9386129,3,2265,0,3021286,3,2265,-0,1571069
0,2487115,1,409934E-05,3,23325,-0,833875,3,23325,0,09265278,3,23325,-0,2497597,0,2487115,8,728161E-06,3,23325,-0,9466697,3,23325,0,3101854,3,23325,-0,136965
0,2492308,1,493858E-05,3,24,-0,8499885,3,24,0,1047379,3,24,-0,2537881,0,2492308,8,89601E-06,3,24,-0,9627832,3,24,0,3142138,3,24,-0,1289082
0,24975,1,258869E-05,3,24675,-0,866102,3,24675,0,1127947,3,24675,-0,2578164,0,24975,8,392462E-06,3,24675,-0,9627832,3,24675,0,3101854,3,24675,-0,1208515
0,2502692,1,15816E-05,3,2535,-0,8781872,3,2535,0,1127947,3,2535,-0,27393,0,2502692,8,560311E-06,3,2535,-0,97084,3,2535,0,3021286,3,2535,-0,1087663
0,2507885,1,12459E-05,3,26025,-0,8862439,3,26025,0,1168231,3,26025,-0,2779583,0,2507885,9,231708E-06,3,26025,-0,9668117,3,26025,0,2940719,3,26025,-0,1168231
0,2513077,1,141375E-05,3,267,-0,9023575,3,267,0,1208515,3,267,-0,2860151,0,2513077,9,567407E-06,3,267,-0,9788967,3,267,0,2819867,3,267,-0,1168231
0,2518269,1,09102E-05,3,27375,-0,9184711,3,27375,0,1168231,3,27375,-0,2900435,0,2518269,8,392462E-06,3,27375,-0,9869535,3,27375,0,27393,3,27375,-0,1248798
0,2523462,1,02388E-05,3,2805,-0,9265279,3,2805,0,1208515,3,2805,-0,2940719,0,2523462,6,54612E-06,3,2805,-0,9990387,3,2805,0,2658732,3,2805,-0,136965
0,2528654,9,063859E-06,3,28725,-0,9305562,3,28725,0,1208515,3,28725,-0,3021286,0,2528654,6,54612E-06,3,28725,-1,007095,3,28725,0,2578164,3,28725,-0,1530785
0,2533846,8,560311E-06,3,294,-0,9305562,3,294,0,1208515,3,294,-0,3142138,0,2533846,6,881819E-06,3,294,-1,015152,3,294,0,2497597,3,294,-0,1732204
0,2539038,8,056764E-06,3,30075,-0,9265279,3,30075,0,1208515,3,30075,-0,3182422,0,2539038,7,049668E-06,3,30075,-1,011124,3,30075,0,2497597,3,30075,-0,1812772
0,2544231,9,231708E-06,3,3075,-0,9184711,3,3075,0,1168231,3,3075,-0,3222705,0,2544231,8,560311E-06,3,3075,-1,007095,3,3075,0,2497597,3,3075,-0,1973907
0,2549423,1,12459E-05,3,31425,-0,9063858,3,31425,0,1248798,3,31425,-0,3303273,0,2549423,1,040665E-05,3,31425,-1,007095,3,31425,0,2578164,3,31425,-0,2094758
0,2554615,1,12459E-05,3,321,-0,8983291,3,321,0,1168231,3,321,-0,3343557,0,2554615,9,903106E-06,3,321,-0,9950103,3,321,0,2658732,3,321,-0,2135042
0,2559808,1,02388E-05,3,32775,-0,8902723,3,32775,0,1248798,3,32775,-0,3343557,0,2559808,8,89601E-06,3,32775,-0,9829252,3,32775,0,27393,3,32775,-0,2135042
0,2565,9,231708E-06,3,3345,-0,8741588,3,3345,0,1208515,3,3345,-0,3424124,0,2565,8,224613E-06,3,3345,-0,9748684,3,3345,0,2699016,3,3345,-0,2094758
0,2570192,9,231708E-06,3,34125,-0,8701304,3,34125,0,1127947,3,34125,-0,3303273,0,2570192,8,392462E-06,3,34125,-0,9587549,3,34125,0,27393,3,34125,-0,2054475
0,2575385,1,05745E-05,3,348,-0,866102,3,348,0,1007095,3,348,-0,3303273,0,2575385,9,231708E-06,3,348,-0,9547265,3,348,0,2699016,3,348,-0,2014191
0,2580577,1,292439E-05,3,35475,-0,8499885,3,35475,0,09668116,3,35475,-0,3303273,0,2580577,1,174945E-05,3,35475,-0,9466697,3,35475,0,27393,3,35475,-0,2094758
0,2585769,1,19173E-05,3,3615,-0,8459601,3,3615,0,09265278,3,3615,-0,3303273,0,2585769,1,275654E-05,3,3615,-0,9345846,3,3615,0,27393,3,3615,-0,2014191
0,2590961,9,231708E-06,3,36825,-0,8419318,3,36825,0,0886244,3,36825,-0,3222705,0,2590961,1,141375E-05,3,36825,-0,9265279,3,36825,0,2779583,3,36825,-0,1973907
0,2596154,1,12459E-05,3,375,-0,8379034,3,375,0,08056764,3,375,-0,3222705,0,2596154,1,05745E-05,3,375,-0,9265279,3,375,0,2699016,3,375,-0,2094758
0,2601346,1,460288E-05,3,38175,-0,8298466,3,38175,0,07653925,3,38175,-0,3182422,0,2601346,1,15816E-05,3,38175,-0,9144427,3,38175,0,2779583,3,38175,-0,2014191
0,2606539,1,292439E-05,3,3885,-0,8137331,3,3885,0,07653925,3,3885,-0,3142138,0,2606539,1,443503E-05,3,3885,-0,9023575,3,3885,0,2699016,3,3885,-0,2054475
0,2611731,8,560311E-06,3,39525,-0,8056763,3,39525,0,07251087,3,39525,-0,3101854,0,2611731,1,594568E-05,3,39525,-0,8983291,3,39525,0,2699016,3,39525,-0,2054475
0,2616923,7,553216E-06,3,402,-0,7976196,3,402,0,07653925,3,402,-0,3021286,0,2616923,1,309224E-05,3,402,-0,8943007,3,402,0,2699016,3,402,-0,2054475
0,2622115,1,05745E-05,3,40875,-0,7855344,3,40875,0,07251087,3,40875,-0,2940719,0,2622115,9,903106E-06,3,40875,-0,8902723,3,40875,0,27393,3,40875,-0,2135042
0,2627308,1,326009E-05,3,4155,-0,7734493,3,4155,0,06848249,3,4155,-0,2860151,0,2627308,9,063859E-06,3,4155,-0,8822156,3,4155,0,2779583,3,4155,-0,2135042
0,26325,1,393149E-05,3,42225,-0,7734493,3,42225,0,07653925,3,42225,-0,2779583,0,26325,6,881819E-06,3,42225,-0,8822156,3,42225,0,2819867,3,42225,-0,2094758
0,2637692,1,05745E-05,3,429,-0,7855344,3,429,0,07653925,3,429,-0,2779583,0,2637692,6,378271E-06,3,429,-0,8983291,3,429,0,2779583,3,429,-0,2094758
0,2642885,4,531929E-06,3,43575,-0,7976196,3,43575,0,08056764,3,43575,-0,2699016,0,2642885,5,203327E-06,3,43575,-0,9104142,3,43575,0,2860151,3,43575,-0,1973907
0,2648077,5,035478E-07,3,4425,-0,8097047,3,4425,0,07653925,3,4425,-0,27393,0,2648077,3,524834E-06,3,4425,-0,9224994,3,4425,0,2860151,3,4425,-0,1853056
0,2653269,2,014191E-06,3,44925,-0,8217899,3,44925,0,08056764,3,44925,-0,27393,0,2653269,3,860533E-06,3,44925,-0,9466697,3,44925,0,2860151,3,44925,-0,1732204
0,2658462,7,553216E-06,3,456,-0,8419318,3,456,0,08459602,3,456,-0,2779583,0,2658462,4,531929E-06,3,456,-0,9587549,3,456,0,2819867,3,456,-0,1571069
0,2663654,1,05745E-05,3,46275,-0,8540169,3,46275,0,09265278,3,46275,-0,2618448,0,2663654,5,874724E-06,3,46275,-0,9627832,3,46275,0,2900435,3,46275,-0,1530785
0,2668846,1,107805E-05,3,4695,-0,8580453,3,4695,0,1047379,3,4695,-0,2578164,0,2668846,8,224613E-06,3,4695,-0,9668117,3,4695,0,2819867,3,4695,-0,1409934
0,2674038,9,567407E-06,3,47625,-0,8701304,3,47625,0,1087663,3,47625,-0,2658732,0,2674038,9,231708E-06,3,47625,-0,9788967,3,47625,0,2860151,3,47625,-0,136965
0,2679231,9,063859E-06,3,483,-0,8902723,3,483,0,1208515,3,483,-0,2699016,0,2679231,9,567407E-06,3,483,-0,9788967,3,483,0,2779583,3,483,-0,136965
0,2684423,1,05745E-05,3,48975,-0,9144427,3,48975,0,1248798,3,48975,-0,2819867,0,2684423,9,231708E-06,3,48975,-0,9829252,3,48975,0,2860151,3,48975,-0,1409934
0,2689615,1,12459E-05,3,4965,-0,9265279,3,4965,0,1248798,3,4965,-0,2940719,0,2689615,6,881819E-06,3,4965,-0,9950103,3,4965,0,2819867,3,4965,-0,1571069
0,2694808,1,141375E-05,3,50325,-0,9305562,3,50325,0,1329366,3,50325,-0,3101854,0,2694808,5,874724E-06,3,50325,-0,9990387,3,50325,0,2819867,3,50325,-0,1571069
0,27,1,12459E-05,3,51,-0,9345846,3,51,0,1248798,3,51,-0,3142138,0,27,6,042573E-06,3,51,-1,011124,3,51,0,2779583,3,51,-0,1651637
0,2705192,1,02388E-05,3,51675,-0,9386129,3,51675,0,1248798,3,51675,-0,306157,0,2705192,7,217517E-06,3,51675,-1,007095,3,51675,0,2819867,3,51675,-0,1651637
0,2710385,1,12459E-05,3,5235,-0,9305562,3,5235,0,1168231,3,5235,-0,3142138,0,2710385,7,553216E-06,3,5235,-1,011124,3,5235,0,2699016,3,5235,-0,1772488
0,2715577,1,326009E-05,3,53025,-0,9104142,3,53025,0,1248798,3,53025,-0,3142138,0,2715577,7,049668E-06,3,53025,-1,011124,3,53025,0,27393,3,53025,-0,1853056
0,2720769,1,359579E-05,3,537,-0,9063858,3,537,0,1248798,3,537,-0,3101854,0,2720769,7,217517E-06,3,537,-1,007095,3,537,0,27393,3,537,-0,1933623
0,2725962,1,460288E-05,3,54375,-0,8902723,3,54375,0,1208515,3,54375,-0,3142138,0,2725962,8,224613E-06,3,54375,-0,9869535,3,54375,0,2699016,3,54375,-0,1973907
0,2731154,1,510643E-05,3,5505,-0,8822156,3,5505,0,1248798,3,5505,-0,3222705,0,2731154,9,231708E-06,3,5505,-0,9788967,3,5505,0,27393,3,5505,-0,2014191
0,2736346,1,426719E-05,3,55725,-0,8822156,3,55725,0,1248798,3,55725,-0,3343557,0,2736346,1,09102E-05,3,55725,-0,9627832,3,55725,0,2699016,3,55725,-0,1973907
0,2741539,1,443503E-05,3,564,-0,8741588,3,564,0,1208515,3,564,-0,3383841,0,2741539,1,09102E-05,3,564,-0,9587549,3,564,0,2658732,3,564,-0,2094758
0,2746731,1,577783E-05,3,57075,-0,866102,3,57075,0,1127947,3,57075,-0,3383841,0,2746731,1,15816E-05,3,57075,-0,9466697,3,57075,0,2658732,3,57075,-0,2094758
0,2751923,1,527428E-05,3,5775,-0,8620737,3,5775,0,1127947,3,5775,-0,3424124,0,2751923,1,19173E-05,3,5775,-0,9426414,3,5775,0,2578164,3,5775,-0,2054475
0,2757115,1,493858E-05,3,58425,-0,8540169,3,58425,0,1047379,3,58425,-0,3464408,0,2757115,9,903106E-06,3,58425,-0,9386129,3,58425,0,2497597,3,58425,-0,2014191
0,2762308,1,460288E-05,3,591,-0,8499885,3,591,0,1047379,3,591,-0,3504692,0,2762308,9,735257E-06,3,591,-0,9345846,3,591,0,2497597,3,591,-0,2135042
0,27675,1,208515E-05,3,59775,-0,8499885,3,59775,0,1007095,3,59775,-0,3464408,0,27675,9,567407E-06,3,59775,-0,9426414,3,59775,0,2497597,3,59775,-0,2054475
0,2772692,9,231708E-06,3,6045,-0,8499885,3,6045,0,0886244,3,6045,-0,3424124,0,2772692,9,231708E-06,3,6045,-0,9426414,3,6045,0,2497597,3,6045,-0,2094758
0,2777885,7,888914E-06,3,61125,-0,8499885,3,61125,0,08056764,3,61125,-0,3383841,0,2777885,7,553216E-06,3,61125,-0,9466697,3,61125,0,2497597,3,61125,-0,2175326
0,2783077,6,881819E-06,3,618,-0,8459601,3,618,0,07251087,3,618,-0,3343557,0,2783077,4,531929E-06,3,618,-0,9426414,3,618,0,2497597,3,618,-0,2255894
0,2788269,7,217517E-06,3,62475,-0,833875,3,62475,0,06848249,3,62475,-0,3303273,0,2788269,3,524834E-06,3,62475,-0,9305562,3,62475,0,2578164,3,62475,-0,2336462
0,2793462,9,735257E-06,3,6315,-0,8177615,3,6315,0,06445411,3,6315,-0,3142138,0,2793462,5,203327E-06,3,6315,-0,9224994,3,6315,0,2537881,3,6315,-0,2296178
0,2798654,1,19173E-05,3,63825,-0,7935912,3,63825,0,06848249,3,63825,-0,3021286,0,2798654,6,378271E-06,3,63825,-0,9063858,3,63825,0,2658732,3,63825,-0,2336462
0,2803846,1,393149E-05,3,645,-0,7774777,3,645,0,07653925,3,645,-0,2900435,0,2803846,5,203327E-06,3,645,-0,9023575,3,645,0,2658732,3,645,-0,2296178
0,2809038,1,409934E-05,3,65175,-0,7653925,3,65175,0,08459602,3,65175,-0,2819867,0,2809038,5,874724E-06,3,65175,-0,8943007,3,65175,0,2658732,3,65175,-0,2255894
0,2814231,1,527428E-05,3,6585,-0,7613642,3,6585,0,09265278,3,6585,-0,2779583,0,2814231,6,881819E-06,3,6585,-0,8983291,3,6585,0,27393,3,6585,-0,2094758
0,2819423,1,594568E-05,3,66525,-0,7653925,3,66525,0,09668116,3,66525,-0,2699016,0,2819423,6,210422E-06,3,66525,-0,8983291,3,66525,0,2779583,3,66525,-0,1973907
0,2824616,1,493858E-05,3,672,-0,7855344,3,672,0,09668116,3,672,-0,2658732,0,2824616,5,203327E-06,3,672,-0,9104142,3,672,0,2819867,3,672,-0,1772488
0,2829808,1,493858E-05,3,67875,-0,7935912,3,67875,0,1007095,3,67875,-0,2618448,0,2829808,7,553216E-06,3,67875,-0,9184711,3,67875,0,2860151,3,67875,-0,1651637
0,2835,1,628138E-05,3,6855,-0,8097047,3,6855,0,1087663,3,6855,-0,2658732,0,2835,7,553216E-06,3,6855,-0,9265279,3,6855,0,2900435,3,6855,-0,136965
0,2840192,1,678492E-05,3,69225,-0,8298466,3,69225,0,1007095,3,69225,-0,2618448,0,2840192,6,881819E-06,3,69225,-0,9426414,3,69225,0,2940719,3,69225,-0,1289082
0,2845385,1,678492E-05,3,699,-0,8580453,3,699,0,1047379,3,699,-0,27393,0,2845385,8,89601E-06,3,699,-0,9466697,3,699,0,2940719,3,699,-0,1248798
0,2850577,1,594568E-05,3,70575,-0,8701304,3,70575,0,1087663,3,70575,-0,27393,0,2850577,1,242084E-05,3,70575,-0,97084,3,70575,0,2900435,3,70575,-0,1168231
0,2855769,1,493858E-05,3,7125,-0,8902723,3,7125,0,1047379,3,7125,-0,2819867,0,2855769,1,544213E-05,3,7125,-0,97084,3,7125,0,2819867,3,7125,-0,1208515
0,2860962,1,393149E-05,3,71925,-0,9023575,3,71925,0,1127947,3,71925,-0,2900435,0,2860962,1,493858E-05,3,71925,-0,9788967,3,71925,0,27393,3,71925,-0,1329366
0,2866154,1,19173E-05,3,726,-0,9063858,3,726,0,1208515,3,726,-0,2981002,0,2866154,1,225299E-05,3,726,-0,9909819,3,726,0,2618448,3,726,-0,1490501
0,2871346,8,89601E-06,3,73275,-0,9144427,3,73275,0,1289082,3,73275,-0,306157,0,2871346,9,903106E-06,3,73275,-0,9909819,3,73275,0,2618448,3,73275,-0,1651637
0,2876539,6,042573E-06,3,7395,-0,9144427,3,7395,0,1329366,3,7395,-0,3101854,0,2876539,8,560311E-06,3,7395,-0,9909819,3,7395,0,2537881,3,7395,-0,1853056
0,2881731,3,021286E-06,3,74625,-0,9224994,3,74625,0,136965,3,74625,-0,3182422,0,2881731,8,224613E-06,3,74625,-0,9950103,3,74625,0,2457313,3,74625,-0,2014191
0,2886923,1,174945E-06,3,753,-0,9184711,3,753,0,1329366,3,753,-0,3262989,0,2886923,1,02388E-05,3,753,-0,9950103,3,753,0,2457313,3,753,-0,2094758
0,2892115,2,853437E-06,3,75975,-0,9104142,3,75975,0,1329366,3,75975,-0,3303273,0,2892115,1,225299E-05,3,75975,-0,9990387,3,75975,0,2537881,3,75975,-0,221561
0,2897308,6,881819E-06,3,7665,-0,9063858,3,7665,0,1329366,3,7665,-0,3343557,0,2897308,1,12459E-05,3,7665,-0,9950103,3,7665,0,2578164,3,7665,-0,2255894
0,29025,1,05745E-05,3,77325,-0,9023575,3,77325,0,1289082,3,77325,-0,3343557,0,29025,1,02388E-05,3,77325,-0,9909819,3,77325,0,2658732,3,77325,-0,2336462
0,2907692,1,258869E-05,3,78,-0,8862439,3,78,0,1289082,3,78,-0,3424124,0,2907692,1,02388E-05,3,78,-0,9829252,3,78,0,2658732,3,78,-0,2255894
0,2912885,9,735257E-06,3,78675,-0,8741588,3,78675,0,1208515,3,78675,-0,3343557,0,2912885,9,903106E-06,3,78675,-0,9788967,3,78675,0,2699016,3,78675,-0,2175326
0,2918077,5,539025E-06,3,7935,-0,8620737,3,7935,0,1208515,3,7935,-0,3383841,0,2918077,8,89601E-06,3,7935,-0,97084,3,7935,0,2658732,3,7935,-0,2054475
0,2923269,5,203327E-06,3,80025,-0,8540169,3,80025,0,1208515,3,80025,-0,3383841,0,2923269,7,553216E-06,3,80025,-0,9587549,3,80025,0,2699016,3,80025,-0,2014191
0,2928461,7,553216E-06,3,807,-0,8459601,3,807,0,1208515,3,807,-0,3383841,0,2928461,6,881819E-06,3,807,-0,9426414,3,807,0,2658732,3,807,-0,1893339
0,2933654,1,007095E-05,3,81375,-0,833875,3,81375,0,1168231,3,81375,-0,3343557,0,2933654,7,049668E-06,3,81375,-0,9345846,3,81375,0,2618448,3,81375,-0,1853056
0,2938846,1,225299E-05,3,8205,-0,833875,3,8205,0,1168231,3,8205,-0,3303273,0,2938846,8,392462E-06,3,8205,-0,9305562,3,8205,0,2578164,3,8205,-0,1893339
0,2944039,1,19173E-05,3,82725,-0,8298466,3,82725,0,1208515,3,82725,-0,3303273,0,2944039,8,224613E-06,3,82725,-0,9224994,3,82725,0,2578164,3,82725,-0,1812772
0,2949231,1,225299E-05,3,834,-0,8258182,3,834,0,1127947,3,834,-0,3222705,0,2949231,5,874724E-06,3,834,-0,9224994,3,834,0,2537881,3,834,-0,1893339
0,2954423,1,393149E-05,3,84075,-0,833875,3,84075,0,1087663,3,84075,-0,3182422,0,2954423,5,539025E-06,3,84075,-0,9184711,3,84075,0,2457313,3,84075,-0,1893339
0,2959615,1,460288E-05,3,8475,-0,833875,3,8475,0,1047379,3,8475,-0,3142138,0,2959615,6,54612E-06,3,8475,-0,9224994,3,8475,0,2376745,3,8475,-0,1893339
0,2964808,1,292439E-05,3,85425,-0,833875,3,85425,0,09265278,3,85425,-0,3182422,0,2964808,5,539025E-06,3,85425,-0,9265279,3,85425,0,2417029,3,85425,-0,1893339
0,297,1,05745E-05,3,861,-0,8379034,3,861,0,0886244,3,861,-0,3101854,0,297,4,699778E-06,3,861,-0,9345846,3,861,0,2457313,3,861,-0,1973907
0,2975192,1,05745E-05,3,86775,-0,8379034,3,86775,0,08459602,3,86775,-0,3101854,0,2975192,6,210422E-06,3,86775,-0,9386129,3,86775,0,2417029,3,86775,-0,1973907
0,2980385,1,258869E-05,3,8745,-0,8419318,3,8745,0,08459602,3,8745,-0,306157,0,2980385,8,392462E-06,3,8745,-0,9426414,3,8745,0,2457313,3,8745,-0,2054475
0,2985577,1,174945E-05,3,88125,-0,833875,3,88125,0,08459602,3,88125,-0,3021286,0,2985577,9,231708E-06,3,88125,-0,9466697,3,88125,0,2497597,3,88125,-0,2014191
0,2990769,1,040665E-05,3,888,-0,833875,3,888,0,08056764,3,888,-0,3021286,0,2990769,9,567407E-06,3,888,-0,9506981,3,888,0,2497597,3,888,-0,1973907
0,2995962,1,040665E-05,3,89475,-0,8379034,3,89475,0,08056764,3,89475,-0,3101854,0,2995962,9,399557E-06,3,89475,-0,9547265,3,89475,0,2537881,3,89475,-0,2014191
0,3001154,1,05745E-05,3,9015,-0,833875,3,9015,0,08459602,3,9015,-0,3101854,0,3001154,1,05745E-05,3,9015,-0,9547265,3,9015,0,2578164,3,9015,-0,2014191
0,3006346,1,05745E-05,3,90825,-0,8379034,3,90825,0,09265278,3,90825,-0,3101854,0,3006346,1,19173E-05,3,90825,-0,9466697,3,90825,0,2618448,3,90825,-0,1933623
0,3011538,1,05745E-05,3,915,-0,833875,3,915,0,09265278,3,915,-0,3021286,0,3011538,1,292439E-05,3,915,-0,9506981,3,915,0,2699016,3,915,-0,2014191
0,3016731,9,903106E-06,3,92175,-0,8419318,3,92175,0,09668116,3,92175,-0,2981002,0,3016731,1,225299E-05,3,92175,-0,9506981,3,92175,0,27393,3,92175,-0,1933623
0,3021923,1,02388E-05,3,9285,-0,8540169,3,9285,0,09668116,3,9285,-0,2981002,0,3021923,1,02388E-05,3,9285,-0,9506981,3,9285,0,2779583,3,9285,-0,1933623
0,3027115,1,05745E-05,3,93525,-0,8580453,3,93525,0,1007095,3,93525,-0,2940719,0,3027115,5,035477E-06,3,93525,-0,9506981,3,93525,0,2779583,3,93525,-0,1893339
0,3032308,8,728161E-06,3,942,-0,8701304,3,942,0,1007095,3,942,-0,2981002,0,3032308,2,853437E-06,3,942,-0,9627832,3,942,0,2819867,3,942,-0,1853056
0,30375,7,553216E-06,3,94875,-0,8701304,3,94875,0,1087663,3,94875,-0,2940719,0,30375,3,860533E-06,3,94875,-0,9668117,3,94875,0,2819867,3,94875,-0,1812772
0,3042692,8,056764E-06,3,9555,-0,8781872,3,9555,0,1168231,3,9555,-0,2981002,0,3042692,4,867628E-06,3,9555,-0,9748684,3,9555,0,2819867,3,9555,-0,1853056
0,3047885,8,728161E-06,3,96225,-0,8701304,3,96225,0,1168231,3,96225,-0,3021286,0,3047885,6,54612E-06,3,96225,-0,97084,3,96225,0,2819867,3,96225,-0,1772488
0,3053077,1,12459E-05,3,969,-0,866102,3,969,0,1289082,3,969,-0,3021286,0,3053077,6,71397E-06,3,969,-0,9668117,3,969,0,2779583,3,969,-0,1812772
0,3058269,1,510643E-05,3,97575,-0,8620737,3,97575,0,1329366,3,97575,-0,3021286,0,3058269,7,553216E-06,3,97575,-0,9627832,3,97575,0,27393,3,97575,-0,1812772
0,3063461,1,594568E-05,3,9825,-0,866102,3,9825,0,1289082,3,9825,-0,3101854,0,3063461,9,399557E-06,3,9825,-0,9627832,3,9825,0,2699016,3,9825,-0,1812772
0,3068654,1,477073E-05,3,98925,-0,8741588,3,98925,0,1289082,3,98925,-0,3262989,0,3068654,9,567407E-06,3,98925,-0,97084,3,98925,0,2658732,3,98925,-0,1853056
0,3073846,1,393149E-05,3,996,-0,8701304,3,996,0,1208515,3,996,-0,3262989,0,3073846,9,399557E-06,3,996,-0,97084,3,996,0,27393,3,996,-0,1853056
0,3079039,1,292439E-05,4,00275,-0,866102,4,00275,0,1208515,4,00275,-0,3222705,0,3079039,9,567407E-06,4,00275,-0,97084,4,00275,0,2699016,4,00275,-0,1772488
0,3084231,1,460288E-05,4,0095,-0,8620737,4,0095,0,1168231,4,0095,-0,3222705,0,3084231,9,903106E-06,4,0095,-0,97084,4,0095,0,2699016,4,0095,-0,1853056
0,3089423,1,661708E-05,4,01625,-0,8580453,4,01625,0,1208515,4,01625,-0,3182422,0,3089423,7,385367E-06,4,01625,-0,9668117,4,01625,0,2658732,4,01625,-0,1853056
0,3094615,1,594568E-05,4,023,-0,8499885,4,023,0,1127947,4,023,-0,3142138,0,3094615,5,539025E-06,4,023,-0,9627832,4,023,0,2578164,4,023,-0,1853056
0,3099808,1,443503E-05,4,02975,-0,8459601,4,02975,0,1087663,4,02975,-0,3142138,0,3099808,7,217517E-06,4,02975,-0,9547265,4,02975,0,2537881,4,02975,-0,1853056
0,3105,1,460288E-05,4,0365,-0,8540169,4,0365,0,1047379,4,0365,-0,3182422,0,3105,7,385367E-06,4,0365,-0,9587549,4,0365,0,2497597,4,0365,-0,1933623
0,3110192,1,493858E-05,4,04325,-0,8540169,4,04325,0,1007095,4,04325,-0,3182422,0,3110192,7,217517E-06,4,04325,-0,9587549,4,04325,0,2497597,4,04325,-0,1933623
0,3115385,1,359579E-05,4,05,-0,8620737,4,05,0,1007095,4,05,-0,3303273,0,3115385,6,881819E-06,4,05,-0,9587549,4,05,0,2537881,4,05,-0,1893339
0,3120577,1,19173E-05,4,05675,-0,8701304,4,05675,0,1007095,4,05675,-0,3222705,0,3120577,6,042573E-06,4,05675,-0,9587549,4,05675,0,2578164,4,05675,-0,1933623
0,3125769,1,19173E-05,4,0635,-0,866102,4,0635,0,09668116,4,0635,-0,3222705,0,3125769,5,035477E-06,4,0635,-0,9587549,4,0635,0,2699016,4,0635,-0,1933623
0,3130962,1,309224E-05,4,07025,-0,8701304,4,07025,0,09265278,4,07025,-0,3101854,0,3130962,3,860533E-06,4,07025,-0,9627832,4,07025,0,2699016,4,07025,-0,1893339
0,3136154,1,359579E-05,4,077,-0,8620737,4,077,0,08459602,4,077,-0,3101854,0,3136154,4,699778E-06,4,077,-0,9627832,4,077,0,2699016,4,077,-0,1933623
0,3141346,1,409934E-05,4,08375,-0,8580453,4,08375,0,0886244,4,08375,-0,3101854,0,3141346,5,874724E-06,4,08375,-0,9587549,4,08375,0,2618448,4,08375,-0,2014191
0,3146538,1,359579E-05,4,0905,-0,8580453,4,0905,0,08459602,4,0905,-0,3101854,0,3146538,7,721065E-06,4,0905,-0,9547265,4,0905,0,2699016,4,0905,-0,2014191
0,3151731,1,05745E-05,4,09725,-0,8540169,4,09725,0,08056764,4,09725,-0,3021286,0,3151731,1,040665E-05,4,09725,-0,9506981,4,09725,0,2658732,4,09725,-0,2014191
0,3156923,6,881819E-06,4,104,-0,8499885,4,104,0,0886244,4,104,-0,306157,0,3156923,1,12459E-05,4,104,-0,9466697,4,104,0,2658732,4,104,-0,1933623
0,3162116,6,54612E-06,4,11075,-0,8540169,4,11075,0,0886244,4,11075,-0,306157,0,3162116,1,05745E-05,4,11075,-0,9466697,4,11075,0,2699016,4,11075,-0,2014191
0,3167308,9,567407E-06,4,1175,-0,8499885,4,1175,0,0886244,4,1175,-0,3142138,0,3167308,9,231708E-06,4,1175,-0,9345846,4,1175,0,27393,4,1175,-0,2014191
0,31725,1,309224E-05,4,12425,-0,8419318,4,12425,0,0886244,4,12425,-0,3182422,0,31725,7,553216E-06,4,12425,-0,9305562,4,12425,0,2658732,4,12425,-0,2014191
0,3177692,1,309224E-05,4,131,-0,8379034,4,131,0,08459602,4,131,-0,3182422,0,3177692,9,063859E-06,4,131,-0,9305562,4,131,0,27393,4,131,-0,1973907
0,3182885,1,242084E-05,4,13775,-0,8379034,4,13775,0,09668116,4,13775,-0,3182422,0,3182885,1,174945E-05,4,13775,-0,9265279,4,13775,0,2699016,4,13775,-0,2054475
0,3188077,1,443503E-05,4,1445,-0,8379034,4,1445,0,09265278,4,1445,-0,3182422,0,3188077,1,174945E-05,4,1445,-0,9265279,4,1445,0,2699016,4,1445,-0,2054475
0,3193269,1,594568E-05,4,15125,-0,8379034,4,15125,0,09668116,4,15125,-0,3182422,0,3193269,1,12459E-05,4,15125,-0,9386129,4,15125,0,2779583,4,15125,-0,2175326
0,3198462,1,460288E-05,4,158,-0,8419318,4,158,0,0886244,4,158,-0,3222705,0,3198462,1,225299E-05,4,158,-0,9386129,4,158,0,2779583,4,158,-0,2094758
0,3203654,1,309224E-05,4,16475,-0,8459601,4,16475,0,09265278,4,16475,-0,3182422,0,3203654,1,05745E-05,4,16475,-0,9466697,4,16475,0,27393,4,16475,-0,2135042
0,3208846,1,258869E-05,4,1715,-0,8499885,4,1715,0,0886244,4,1715,-0,3182422,0,3208846,8,392462E-06,4,1715,-0,9506981,4,1715,0,27393,4,1715,-0,2135042
0,3214039,1,05745E-05,4,17825,-0,8540169,4,17825,0,09265278,4,17825,-0,3222705,0,3214039,9,231708E-06,4,17825,-0,9547265,4,17825,0,27393,4,17825,-0,2014191
0,3219231,9,567407E-06,4,185,-0,8620737,4,185,0,0886244,4,185,-0,3182422,0,3219231,1,15816E-05,4,185,-0,9587549,4,185,0,27393,4,185,-0,2054475
0,3224423,8,89601E-06,4,19175,-0,866102,4,19175,0,08459602,4,19175,-0,3222705,0,3224423,1,05745E-05,4,19175,-0,9587549,4,19175,0,2699016,4,19175,-0,2054475
0,3229615,7,217517E-06,4,1985,-0,8741588,4,1985,0,08459602,4,1985,-0,3101854,0,3229615,9,231708E-06,4,1985,-0,9668117,4,1985,0,27393,4,1985,-0,2094758
0,3234808,6,881819E-06,4,20525,-0,8741588,4,20525,0,09265278,4,20525,-0,3182422,0,3234808,8,89601E-06,4,20525,-0,97084,4,20525,0,2779583,4,20525,-0,2014191
0,324,8,392462E-06,4,212,-0,8701304,4,212,0,1007095,4,212,-0,3222705,0,324,8,224613E-06,4,212,-0,97084,4,212,0,2699016,4,212,-0,1973907
0,3245192,1,05745E-05,4,21875,-0,8701304,4,21875,0,1047379,4,21875,-0,3182422,0,3245192,8,728161E-06,4,21875,-0,97084,4,21875,0,27393,4,21875,-0,1933623
0,3250385,1,258869E-05,4,2255,-0,8701304,4,2255,0,1047379,4,2255,-0,3142138,0,3250385,1,02388E-05,4,2255,-0,9668117,4,2255,0,27393,4,2255,-0,2014191
0,3255577,1,393149E-05,4,23225,-0,866102,4,23225,0,1127947,4,23225,-0,3182422,0,3255577,1,19173E-05,4,23225,-0,9668117,4,23225,0,2699016,4,23225,-0,1933623
0,3260769,1,326009E-05,4,239,-0,8620737,4,239,0,1087663,4,239,-0,3182422,0,3260769,1,275654E-05,4,239,-0,9668117,4,239,0,2618448,4,239,-0,1933623
0,3265962,1,225299E-05,4,24575,-0,8620737,4,24575,0,1127947,4,24575,-0,3222705,0,3265962,1,15816E-05,4,24575,-0,9627832,4,24575,0,2618448,4,24575,-0,1853056
0,3271154,1,19173E-05,4,2525,-0,8580453,4,2525,0,1087663,4,2525,-0,3222705,0,3271154,9,231708E-06,4,2525,-0,9627832,4,2525,0,2618448,4,2525,-0,1933623
0,3276346,1,393149E-05,4,25925,-0,8580453,4,25925,0,1047379,4,25925,-0,3182422,0,3276346,8,224613E-06,4,25925,-0,9547265,4,25925,0,2578164,4,25925,-0,1893339
0,3281538,1,493858E-05,4,266,-0,8580453,4,266,0,1007095,4,266,-0,3182422,0,3281538,9,063859E-06,4,266,-0,9506981,4,266,0,2578164,4,266,-0,1853056
0,3286731,1,258869E-05,4,27275,-0,8540169,4,27275,0,1007095,4,27275,-0,3182422,0,3286731,1,258869E-05,4,27275,-0,9506981,4,27275,0,2578164,4,27275,-0,1772488
0,3291923,1,05745E-05,4,2795,-0,8580453,4,2795,0,09668116,4,2795,-0,3182422,0,3291923,1,594568E-05,4,2795,-0,9506981,4,2795,0,2497597,4,2795,-0,1853056
0,3297116,7,553216E-06,4,28625,-0,8459601,4,28625,0,1007095,4,28625,-0,3142138,0,3297116,1,309224E-05,4,28625,-0,9506981,4,28625,0,2497597,4,28625,-0,1812772
0,3302308,5,706875E-06,4,293,-0,8499885,4,293,0,09265278,4,293,-0,3142138,0,3302308,7,888914E-06,4,293,-0,9587549,4,293,0,2497597,4,293,-0,1812772
0,33075,4,531929E-06,4,29975,-0,8580453,4,29975,0,09668116,4,29975,-0,3182422,0,33075,5,203327E-06,4,29975,-0,9547265,4,29975,0,2618448,4,29975,-0,1853056
0,3312692,5,706875E-06,4,3065,-0,8620737,4,3065,0,09265278,4,3065,-0,3182422,0,3312692,4,867628E-06,4,3065,-0,9547265,4,3065,0,2618448,4,3065,-0,1933623
0,3317885,6,54612E-06,4,31325,-0,8540169,4,31325,0,09265278,4,31325,-0,3182422,0,3317885,7,217517E-06,4,31325,-0,9587549,4,31325,0,2658732,4,31325,-0,2014191
0,3323077,8,89601E-06,4,32,-0,8540169,4,32,0,0886244,4,32,-0,3142138,0,3323077,7,888914E-06,4,32,-0,9627832,4,32,0,2779583,4,32,-0,2014191
0,3328269,1,12459E-05,4,32675,-0,8580453,4,32675,0,08459602,4,32675,-0,3182422,0,3328269,7,553216E-06,4,32675,-0,9587549,4,32675,0,27393,4,32675,-0,2054475
0,3333462,9,903106E-06,4,3335,-0,8540169,4,3335,0,08459602,4,3335,-0,3142138,0,3333462,7,217517E-06,4,3335,-0,9627832,4,3335,0,27393,4,3335,-0,2094758
0,3338654,7,553216E-06,4,34025,-0,8540169,4,34025,0,08056764,4,34025,-0,306157,0,3338654,6,54612E-06,4,34025,-0,9587549,4,34025,0,2779583,4,34025,-0,2094758
0,3343846,7,888914E-06,4,347,-0,8540169,4,347,0,08056764,4,347,-0,306157,0,3343846,6,54612E-06,4,347,-0,9547265,4,347,0,2779583,4,347,-0,2094758
0,3349038,8,89601E-06,4,35375,-0,8499885,4,35375,0,08459602,4,35375,-0,306157,0,3349038,7,217517E-06,4,35375,-0,9506981,4,35375,0,2819867,4,35375,-0,1973907
0,3354231,9,567407E-06,4,3605,-0,8540169,4,3605,0,08056764,4,3605,-0,3142138,0,3354231,6,54612E-06,4,3605,-0,9466697,4,3605,0,2779583,4,3605,-0,1973907
0,3359423,9,399557E-06,4,36725,-0,8499885,4,36725,0,0886244,4,36725,-0,3142138,0,3359423,6,210422E-06,4,36725,-0,9466697,4,36725,0,2860151,4,36725,-0,1973907
0,3364615,8,560311E-06,4,374,-0,8580453,4,374,0,08459602,4,374,-0,3182422,0,3364615,6,042573E-06,4,374,-0,9386129,4,374,0,2819867,4,374,-0,1933623
0,3369808,9,567407E-06,4,38075,-0,8580453,4,38075,0,0886244,4,38075,-0,3101854,0,3369808,6,54612E-06,4,38075,-0,9426414,4,38075,0,2860151,4,38075,-0,1893339
0,3375,1,05745E-05,4,3875,-0,8620737,4,3875,0,09668116,4,3875,-0,3142138,0,3375,7,553216E-06,4,3875,-0,9506981,4,3875,0,2779583,4,3875,-0,1933623
0,3380192,1,02388E-05,4,39425,-0,8620737,4,39425,0,1007095,4,39425,-0,3182422,0,3380192,1,007095E-05,4,39425,-0,9506981,4,39425,0,27393,4,39425,-0,1893339
0,3385385,9,735257E-06,4,401,-0,8620737,4,401,0,1007095,4,401,-0,3222705,0,3385385,1,02388E-05,4,401,-0,9587549,4,401,0,2699016,4,401,-0,2014191
0,3390577,1,007095E-05,4,40775,-0,8580453,4,40775,0,09668116,4,40775,-0,3142138,0,3390577,7,888914E-06,4,40775,-0,9547265,4,40775,0,2699016,4,40775,-0,1973907
0,3395769,1,09102E-05,4,4145,-0,8580453,4,4145,0,1007095,4,4145,-0,3222705,0,3395769,6,378271E-06,4,4145,-0,9627832,4,4145,0,2618448,4,4145,-0,2054475
0,3400961,1,258869E-05,4,42125,-0,8620737,4,42125,0,1047379,4,42125,-0,3222705,0,3400961,3,860533E-06,4,42125,-0,9587549,4,42125,0,2658732,4,42125,-0,2014191
0,3406154,1,225299E-05,4,428,-0,8580453,4,428,0,1007095,4,428,-0,3222705,0,3406154,4,028382E-06,4,428,-0,9668117,4,428,0,2658732,4,428,-0,2014191
0,3411346,9,567407E-06,4,43475,-0,8580453,4,43475,0,09668116,4,43475,-0,3182422,0,3411346,8,224613E-06,4,43475,-0,9627832,4,43475,0,2658732,4,43475,-0,2054475
0,3416539,7,385367E-06,4,4415,-0,8580453,4,4415,0,09668116,4,4415,-0,3182422,0,3416539,1,12459E-05,4,4415,-0,9627832,4,4415,0,2699016,4,4415,-0,2054475
0,3421731,7,888914E-06,4,44825,-0,8580453,4,44825,0,09265278,4,44825,-0,3142138,0,3421731,9,903106E-06,4,44825,-0,9587549,4,44825,0,27393,4,44825,-0,1973907
0,3426923,1,05745E-05,4,455,-0,8540169,4,455,0,0886244,4,455,-0,3222705,0,3426923,1,15816E-05,4,455,-0,9587549,4,455,0,2699016,4,455,-0,1973907
0,3432115,1,242084E-05,4,46175,-0,8580453,4,46175,0,0886244,4,46175,-0,3142138,0,3432115,1,393149E-05,4,46175,-0,9466697,4,46175,0,27393,4,46175,-0,1933623
0,3437308,1,12459E-05,4,4685,-0,8580453,4,4685,0,08056764,4,4685,-0,3142138,0,3437308,1,409934E-05,4,4685,-0,9466697,4,4685,0,2658732,4,4685,-0,1893339
0,34425,1,05745E-05,4,47525,-0,8620737,4,47525,0,0886244,4,47525,-0,3142138,0,34425,1,292439E-05,4,47525,-0,9506981,4,47525,0,2618448,4,47525,-0,1853056
0,3447692,1,141375E-05,4,482,-0,8580453,4,482,0,09668116,4,482,-0,3222705,0,3447692,1,292439E-05,4,482,-0,9547265,4,482,0,2578164,4,482,-0,1893339
0,3452885,9,063859E-06,4,48875,-0,8540169,4,48875,0,09265278,4,48875,-0,3142138,0,3452885,1,477073E-05,4,48875,-0,9506981,4,48875,0,2618448,4,48875,-0,1893339
0,3458077,6,210422E-06,4,4955,-0,8540169,4,4955,0,1007095,4,4955,-0,306157,0,3458077,1,644923E-05,4,4955,-0,9547265,4,4955,0,2578164,4,4955,-0,1933623
0,3463269,4,867628E-06,4,50225,-0,8580453,4,50225,0,09668116,4,50225,-0,3142138,0,3463269,1,326009E-05,4,50225,-0,9466697,4,50225,0,2658732,4,50225,-0,1973907
0,3468462,5,035477E-06,4,509,-0,8701304,4,509,0,09265278,4,509,-0,3182422,0,3468462,9,903106E-06,4,509,-0,9506981,4,509,0,27393,4,509,-0,1933623
0,3473654,5,203327E-06,4,51575,-0,8701304,4,51575,0,09265278,4,51575,-0,3262989,0,3473654,8,89601E-06,4,51575,-0,9587549,4,51575,0,2699016,4,51575,-0,1973907
0,3478846,5,203327E-06,4,5225,-0,866102,4,5225,0,0886244,4,5225,-0,3222705,0,3478846,4,867628E-06,4,5225,-0,9587549,4,5225,0,27393,4,5225,-0,2014191
0,3484038,3,524834E-06,4,52925,-0,866102,4,52925,0,09265278,4,52925,-0,3182422,0,3484038,4,196231E-06,4,52925,-0,9627832,4,52925,0,2658732,4,52925,-0,1973907
0,3489231,3,524834E-06,4,536,-0,8540169,4,536,0,09668116,4,536,-0,3101854,0,3489231,5,203327E-06,4,536,-0,9587549,4,536,0,2658732,4,536,-0,2014191
0,3494423,5,203327E-06,4,54275,-0,8419318,4,54275,0,09668116,4,54275,-0,3101854,0,3494423,3,189135E-06,4,54275,-0,9547265,4,54275,0,2578164,4,54275,-0,2054475
0,3499615,7,217517E-06,4,5495,-0,8459601,4,5495,0,08459602,4,5495,-0,3101854,0,3499615,8,392462E-07,4,5495,-0,9506981,4,5495,0,2578164,4,5495,-0,2014191
0,3504808,9,231708E-06,4,55625,-0,8459601,4,55625,0,08459602,4,55625,-0,306157,0,3504808,3,524834E-06,4,55625,-0,9547265,4,55625,0,2578164,4,55625,-0,2014191
0,351,1,12459E-05,4,563,-0,8540169,4,563,0,07653925,4,563,-0,3101854,0,351,6,71397E-06,4,563,-0,9466697,4,563,0,2618448,4,563,-0,2094758
0,3515192,1,258869E-05,4,56975,-0,8620737,4,56975,0,08056764,4,56975,-0,3222705,0,3515192,7,888914E-06,4,56975,-0,9506981,4,56975,0,2658732,4,56975,-0,2094758
0,3520385,1,393149E-05,4,5765,-0,8701304,4,5765,0,08056764,4,5765,-0,3222705,0,3520385,8,392462E-06,4,5765,-0,9547265,4,5765,0,2779583,4,5765,-0,2135042
0,3525577,1,326009E-05,4,58325,-0,8701304,4,58325,0,08459602,4,58325,-0,3222705,0,3525577,9,231708E-06,4,58325,-0,9506981,4,58325,0,2860151,4,58325,-0,2014191
0,3530769,1,05745E-05,4,59,-0,8620737,4,59,0,08459602,4,59,-0,3182422,0,3530769,8,89601E-06,4,59,-0,9587549,4,59,0,2860151,4,59,-0,2054475
0,3535962,9,231708E-06,4,59675,-0,8580453,4,59675,0,08459602,4,59675,-0,3142138,0,3535962,7,888914E-06,4,59675,-0,9547265,4,59675,0,2900435,4,59675,-0,1973907
0,3541154,1,107805E-05,4,6035,-0,8540169,4,6035,0,08459602,4,6035,-0,306157,0,3541154,7,049668E-06,4,6035,-0,9547265,4,6035,0,2819867,4,6035,-0,2054475
0,3546346,1,309224E-05,4,61025,-0,8499885,4,61025,0,0886244,4,61025,-0,3021286,0,3546346,6,042573E-06,4,61025,-0,9506981,4,61025,0,2860151,4,61025,-0,1973907
0,3551539,1,393149E-05,4,617,-0,8499885,4,617,0,08459602,4,617,-0,2981002,0,3551539,3,021286E-06,4,617,-0,9506981,4,617,0,2779583,4,617,-0,1973907
0,3556731,1,393149E-05,4,62375,-0,8499885,4,62375,0,08459602,4,62375,-0,2981002,0,3556731,2,517739E-06,4,62375,-0,9466697,4,62375,0,2779583,4,62375,-0,1933623
0,3561923,1,275654E-05,4,6305,-0,8540169,4,6305,0,08459602,4,6305,-0,306157,0,3561923,5,539025E-06,4,6305,-0,9466697,4,6305,0,2699016,4,6305,-0,1893339
0,3567115,1,15816E-05,4,63725,-0,8499885,4,63725,0,0886244,4,63725,-0,3021286,0,3567115,6,881819E-06,4,63725,-0,9345846,4,63725,0,2699016,4,63725,-0,1933623
0,3572308,1,258869E-05,4,644,-0,8459601,4,644,0,09265278,4,644,-0,3182422,0,3572308,5,874724E-06,4,644,-0,9386129,4,644,0,2618448,4,644,-0,1973907
0,35775,1,493858E-05,4,65075,-0,8459601,4,65075,0,09265278,4,65075,-0,3222705,0,35775,4,531929E-06,4,65075,-0,9305562,4,65075,0,2618448,4,65075,-0,1973907
0,3582692,1,560998E-05,4,6575,-0,8419318,4,6575,0,09265278,4,6575,-0,3303273,0,3582692,3,860533E-06,4,6575,-0,9386129,4,6575,0,2618448,4,6575,-0,2014191
0,3587885,1,393149E-05,4,66425,-0,8499885,4,66425,0,1047379,4,66425,-0,3303273,0,3587885,3,524834E-06,4,66425,-0,9426414,4,66425,0,2618448,4,66425,-0,2014191
0,3593077,1,393149E-05,4,671,-0,8459601,4,671,0,1047379,4,671,-0,3343557,0,3593077,4,867628E-06,4,671,-0,9466697,4,671,0,2497597,4,671,-0,2054475
0,3598269,1,661708E-05,4,67775,-0,8459601,4,67775,0,1047379,4,67775,-0,3303273,0,3598269,6,54612E-06,4,67775,-0,9506981,4,67775,0,2537881,4,67775,-0,2094758
0,3603462,1,863126E-05,4,6845,-0,8540169,4,6845,0,1047379,4,6845,-0,3262989,0,3603462,7,888914E-06,4,6845,-0,9587549,4,6845,0,2578164,4,6845,-0,2135042
0,3608654,1,896696E-05,4,69125,-0,8499885,4,69125,0,1087663,4,69125,-0,3182422,0,3608654,9,231708E-06,4,69125,-0,9627832,4,69125,0,2658732,4,69125,-0,2135042
0,3613846,1,695277E-05,4,698,-0,8580453,4,698,0,1047379,4,698,-0,3182422,0,3613846,1,09102E-05,4,698,-0,9668117,4,698,0,2618448,4,698,-0,2094758
0,3619038,1,443503E-05,4,70475,-0,866102,4,70475,0,1047379,4,70475,-0,3222705,0,3619038,1,19173E-05,4,70475,-0,9668117,4,70475,0,2699016,4,70475,-0,2054475
0,3624231,1,510643E-05,4,7115,-0,8701304,4,7115,0,09668116,4,7115,-0,3182422,0,3624231,1,12459E-05,4,7115,-0,97084,4,7115,0,27393,4,7115,-0,2054475
0,3629423,1,863126E-05,4,71825,-0,8701304,4,71825,0,1007095,4,71825,-0,3222705,0,3629423,8,89601E-06,4,71825,-0,9627832,4,71825,0,2779583,4,71825,-0,1933623
0,3634616,1,863126E-05,4,725,-0,8741588,4,725,0,1007095,4,725,-0,3142138,0,3634616,7,553216E-06,4,725,-0,97084,4,725,0,27393,4,725,-0,1933623
0,3639808,1,644923E-05,4,73175,-0,8701304,4,73175,0,1047379,4,73175,-0,3182422,0,3639808,5,203327E-06,4,73175,-0,9627832,4,73175,0,27393,4,73175,-0,1853056
0,3645,1,594568E-05,4,7385,-0,8701304,4,7385,0,1047379,4,7385,-0,3142138,0,3645,5,874724E-06,4,7385,-0,9587549,4,7385,0,27393,4,7385,-0,1853056
0,3650192,1,678492E-05,4,74525,-0,866102,4,74525,0,1007095,4,74525,-0,3101854,0,3650192,7,217517E-06,4,74525,-0,9587549,4,74525,0,27393,4,74525,-0,1933623
0,3655385,1,728847E-05,4,752,-0,866102,4,752,0,1007095,4,752,-0,3101854,0,3655385,7,385367E-06,4,752,-0,9547265,4,752,0,2699016,4,752,-0,1973907
0,3660577,1,426719E-05,4,75875,-0,8620737,4,75875,0,09265278,4,75875,-0,3101854,0,3660577,6,54612E-06,4,75875,-0,9506981,4,75875,0,2658732,4,75875,-0,1973907
0,3665769,1,15816E-05,4,7655,-0,8620737,4,7655,0,0886244,4,7655,-0,3142138,0,3665769,7,217517E-06,4,7655,-0,9627832,4,7655,0,2658732,4,7655,-0,1973907
0,3670962,1,19173E-05,4,77225,-0,8620737,4,77225,0,08056764,4,77225,-0,3142138,0,3670962,7,888914E-06,4,77225,-0,9587549,4,77225,0,2699016,4,77225,-0,1973907
0,3676154,1,326009E-05,4,779,-0,8580453,4,779,0,09265278,4,779,-0,3182422,0,3676154,7,553216E-06,4,779,-0,9547265,4,779,0,2618448,4,779,-0,2014191
0,3681346,1,15816E-05,4,78575,-0,8540169,4,78575,0,09265278,4,78575,-0,3182422,0,3681346,7,217517E-06,4,78575,-0,9547265,4,78575,0,2658732,4,78575,-0,2014191
0,3686539,1,05745E-05,4,7925,-0,8540169,4,7925,0,09668116,4,7925,-0,3182422,0,3686539,9,567407E-06,4,7925,-0,9506981,4,7925,0,2658732,4,7925,-0,2014191
0,3691731,1,09102E-05,4,79925,-0,8459601,4,79925,0,09668116,4,79925,-0,3142138,0,3691731,1,107805E-05,4,79925,-0,9547265,4,79925,0,2618448,4,79925,-0,1933623
0,3696923,1,174945E-05,4,806,-0,8499885,4,806,0,1007095,4,806,-0,3182422,0,3696923,1,09102E-05,4,806,-0,9466697,4,806,0,2578164,4,806,-0,1973907
0,3702115,1,409934E-05,4,81275,-0,8540169,4,81275,0,1047379,4,81275,-0,3182422,0,3702115,9,063859E-06,4,81275,-0,9547265,4,81275,0,2699016,4,81275,-0,1933623
0,3707308,1,628138E-05,4,8195,-0,8540169,4,8195,0,1007095,4,8195,-0,3182422,0,3707308,5,539025E-06,4,8195,-0,9506981,4,8195,0,2658732,4,8195,-0,1933623
0,37125,1,661708E-05,4,82625,-0,8540169,4,82625,0,1007095,4,82625,-0,3142138,0,37125,4,699778E-06,4,82625,-0,9506981,4,82625,0,27393,4,82625,-0,1933623
0,3717692,1,510643E-05,4,833,-0,8499885,4,833,0,1047379,4,833,-0,3101854,0,3717692,7,888914E-06,4,833,-0,9547265,4,833,0,2699016,4,833,-0,1893339
0,3722885,1,174945E-05,4,83975,-0,8499885,4,83975,0,1047379,4,83975,-0,3142138,0,3722885,8,89601E-06,4,83975,-0,9466697,4,83975,0,27393,4,83975,-0,1933623
0,3728077,9,735257E-06,4,8465,-0,8540169,4,8465,0,1007095,4,8465,-0,3101854,0,3728077,7,888914E-06,4,8465,-0,9506981,4,8465,0,2699016,4,8465,-0,1973907
0,3733269,1,007095E-05,4,85325,-0,8499885,4,85325,0,1007095,4,85325,-0,3101854,0,3733269,6,71397E-06,4,85325,-0,9506981,4,85325,0,2699016,4,85325,-0,1933623
0,3738461,1,05745E-05,4,86,-0,8459601,4,86,0,1007095,4,86,-0,3101854,0,3738461,7,385367E-06,4,86,-0,9506981,4,86,0,2658732,4,86,-0,1973907
0,3743654,1,19173E-05,4,86675,-0,8459601,4,86675,0,1007095,4,86675,-0,3101854,0,3743654,7,049668E-06,4,86675,-0,9386129,4,86675,0,2699016,4,86675,-0,1973907
0,3748846,1,02388E-05,4,8735,-0,8459601,4,8735,0,1007095,4,8735,-0,3142138,0,3748846,7,553216E-06,4,8735,-0,9386129,4,8735,0,2658732,4,8735,-0,1933623
0,3754039,7,888914E-06,4,88025,-0,8419318,4,88025,0,1007095,4,88025,-0,3142138,0,3754039,1,05745E-05,4,88025,-0,9426414,4,88025,0,2699016,4,88025,-0,1933623
0,3759231,7,888914E-06,4,887,-0,8459601,4,887,0,1047379,4,887,-0,306157,0,3759231,1,225299E-05,4,887,-0,9426414,4,887,0,2699016,4,887,-0,2014191
0,3764423,1,05745E-05,4,89375,-0,8499885,4,89375,0,1007095,4,89375,-0,306157,0,3764423,1,326009E-05,4,89375,-0,9426414,4,89375,0,2699016,4,89375,-0,1893339
0,3769615,1,258869E-05,4,9005,-0,8499885,4,9005,0,1007095,4,9005,-0,306157,0,3769615,1,443503E-05,4,9005,-0,9466697,4,9005,0,27393,4,9005,-0,1893339
0,3774808,1,326009E-05,4,90725,-0,8540169,4,90725,0,1047379,4,90725,-0,3021286,0,3774808,1,309224E-05,4,90725,-0,9547265,4,90725,0,2779583,4,90725,-0,1893339
0,378,1,242084E-05,4,914,-0,8580453,4,914,0,1047379,4,914,-0,3021286,0,378,1,09102E-05,4,914,-0,9627832,4,914,0,2699016,4,914,-0,1893339
0,3785192,1,309224E-05,4,92075,-0,8620737,4,92075,0,1047379,4,92075,-0,3021286,0,3785192,9,735257E-06,4,92075,-0,9587549,4,92075,0,2699016,4,92075,-0,1853056
0,3790385,1,292439E-05,4,9275,-0,866102,4,9275,0,09668116,4,9275,-0,306157,0,3790385,1,09102E-05,4,9275,-0,9627832,4,9275,0,2658732,4,9275,-0,1893339
0,3795577,1,05745E-05,4,93425,-0,866102,4,93425,0,1007095,4,93425,-0,2981002,0,3795577,1,426719E-05,4,93425,-0,9547265,4,93425,0,2699016,4,93425,-0,1853056
0,3800769,9,231708E-06,4,941,-0,866102,4,941,0,1007095,4,941,-0,306157,0,3800769,1,594568E-05,4,941,-0,9547265,4,941,0,2618448,4,941,-0,1812772
0,3805962,1,02388E-05,4,94775,-0,8741588,4,94775,0,1047379,4,94775,-0,3021286,0,3805962,1,460288E-05,4,94775,-0,9587549,4,94775,0,2658732,4,94775,-0,1853056
0,3811154,1,09102E-05,4,9545,-0,866102,4,9545,0,1087663,4,9545,-0,306157,0,3811154,1,225299E-05,4,9545,-0,9627832,4,9545,0,2618448,4,9545,-0,1853056
0,3816346,8,89601E-06,4,96125,-0,866102,4,96125,0,1127947,4,96125,-0,306157,0,3816346,1,05745E-05,4,96125,-0,9668117,4,96125,0,2658732,4,96125,-0,1812772
0,3821538,5,035477E-06,4,968,-0,8620737,4,968,0,1127947,4,968,-0,3101854,0,3821538,9,231708E-06,4,968,-0,9627832,4,968,0,2537881,4,968,-0,1812772
0,3826731,2,853437E-06,4,97475,-0,8580453,4,97475,0,1208515,4,97475,-0,306157,0,3826731,8,056764E-06,4,97475,-0,9547265,4,97475,0,2618448,4,97475,-0,1853056
0,3831923,4,36408E-06,4,9815,-0,8540169,4,9815,0,1168231,4,9815,-0,3142138,0,3831923,7,217517E-06,4,9815,-0,9547265,4,9815,0,2618448,4,9815,-0,1853056
0,3837115,7,385367E-06,4,98825,-0,8540169,4,98825,0,1168231,4,98825,-0,3182422,0,3837115,6,54612E-06,4,98825,-0,9627832,4,98825,0,2618448,4,98825,-0,1812772
0,3842308,9,231708E-06,4,995,-0,8459601,4,995,0,1127947,4,995,-0,3182422,0,3842308,6,378271E-06,4,995,-0,9587549,4,995,0,2578164,4,995,-0,1853056
0,38475,8,89601E-06,5,00175,-0,8419318,5,00175,0,1127947,5,00175,-0,3101854,0,38475,6,378271E-06,5,00175,-0,9547265,5,00175,0,2618448,5,00175,-0,1893339
0,3852692,7,888914E-06,5,0085,-0,8419318,5,0085,0,1168231,5,0085,-0,3101854,0,3852692,6,54612E-06,5,0085,-0,9587549,5,0085,0,2618448,5,0085,-0,1933623
0,3857885,7,888914E-06,5,01525,-0,8419318,5,01525,0,1127947,5,01525,-0,2981002,0,3857885,8,89601E-06,5,01525,-0,9506981,5,01525,0,2537881,5,01525,-0,1933623
0,3863077,9,903106E-06,5,022,-0,8379034,5,022,0,1047379,5,022,-0,3021286,0,3863077,1,040665E-05,5,022,-0,9506981,5,022,0,2658732,5,022,-0,1853056
0,3868269,1,258869E-05,5,02875,-0,8419318,5,02875,0,1007095,5,02875,-0,306157,0,3868269,9,063859E-06,5,02875,-0,9426414,5,02875,0,2699016,5,02875,-0,1893339
0,3873461,1,225299E-05,5,0355,-0,8499885,5,0355,0,0886244,5,0355,-0,3182422,0,3873461,7,553216E-06,5,0355,-0,9506981,5,0355,0,2699016,5,0355,-0,1973907
0,3878654,1,15816E-05,5,04225,-0,8620737,5,04225,0,0886244,5,04225,-0,3142138,0,3878654,5,706875E-06,5,04225,-0,9466697,5,04225,0,27393,5,04225,-0,1933623
0,3883846,1,12459E-05,5,049,-0,866102,5,049,0,0886244,5,049,-0,3142138,0,3883846,4,531929E-06,5,049,-0,9466697,5,049,0,2699016,5,049,-0,1933623
0,3889039,9,063859E-06,5,05575,-0,8620737,5,05575,0,09265278,5,05575,-0,306157,0,3889039,6,881819E-06,5,05575,-0,9466697,5,05575,0,2819867,5,05575,-0,1893339
0,3894231,8,392462E-06,5,0625,-0,8580453,5,0625,0,09668116,5,0625,-0,306157,0,3894231,9,567407E-06,5,0625,-0,9466697,5,0625,0,27393,5,0625,-0,1933623
0,3899423,1,007095E-05,5,06925,-0,8580453,5,06925,0,1087663,5,06925,-0,2981002,0,3899423,7,553216E-06,5,06925,-0,9466697,5,06925,0,2699016,5,06925,-0,1973907
0,3904615,1,19173E-05,5,076,-0,8580453,5,076,0,09668116,5,076,-0,2900435,0,3904615,3,524834E-06,5,076,-0,9466697,5,076,0,2658732,5,076,-0,1973907
0,3909808,1,19173E-05,5,08275,-0,8620737,5,08275,0,1087663,5,08275,-0,3021286,0,3909808,3,524834E-06,5,08275,-0,9547265,5,08275,0,2658732,5,08275,-0,2014191
0,3915,1,258869E-05,5,0895,-0,866102,5,0895,0,1007095,5,0895,-0,3142138,0,3915,7,049668E-06,5,0895,-0,9547265,5,0895,0,27393,5,0895,-0,2014191
0,3920192,1,225299E-05,5,09625,-0,866102,5,09625,0,1047379,5,09625,-0,3182422,0,3920192,8,224613E-06,5,09625,-0,9547265,5,09625,0,2699016,5,09625,-0,2014191
0,3925385,1,225299E-05,5,103,-0,8580453,5,103,0,1007095,5,103,-0,3182422,0,3925385,9,231708E-06,5,103,-0,9587549,5,103,0,2779583,5,103,-0,2014191
0,3930577,1,15816E-05,5,10975,-0,8620737,5,10975,0,1007095,5,10975,-0,3142138,0,3930577,1,09102E-05,5,10975,-0,9627832,5,10975,0,27393,5,10975,-0,2014191
0,3935769,1,107805E-05,5,1165,-0,8580453,5,1165,0,09668116,5,1165,-0,3101854,0,3935769,1,05745E-05,5,1165,-0,9668117,5,1165,0,2779583,5,1165,-0,2014191
0,3940962,1,05745E-05,5,12325,-0,8499885,5,12325,0,09265278,5,12325,-0,306157,0,3940962,9,399557E-06,5,12325,-0,9547265,5,12325,0,2779583,5,12325,-0,1893339
0,3946154,1,02388E-05,5,13,-0,8540169,5,13,0,1007095,5,13,-0,3021286,0,3946154,7,217517E-06,5,13,-0,9587549,5,13,0,2699016,5,13,-0,1893339
0,3951346,8,89601E-06,5,13675,-0,8459601,5,13675,0,1007095,5,13675,-0,2940719,0,3951346,5,203327E-06,5,13675,-0,9587549,5,13675,0,27393,5,13675,-0,1853056
0,3956538,8,560311E-06,5,1435,-0,8499885,5,1435,0,1047379,5,1435,-0,2981002,0,3956538,5,203327E-06,5,1435,-0,9587549,5,1435,0,2699016,5,1435,-0,1893339
0,3961731,7,553216E-06,5,15025,-0,8540169,5,15025,0,1127947,5,15025,-0,2981002,0,3961731,8,560311E-06,5,15025,-0,9547265,5,15025,0,2779583,5,15025,-0,1853056
0,3966923,6,210422E-06,5,157,-0,8540169,5,157,0,1168231,5,157,-0,3021286,0,3966923,1,02388E-05,5,157,-0,9506981,5,157,0,2658732,5,157,-0,1893339
0,3972116,8,056764E-06,5,16375,-0,8620737,5,16375,0,1208515,5,16375,-0,306157,0,3972116,8,89601E-06,5,16375,-0,9466697,5,16375,0,2699016,5,16375,-0,1893339
0,3977308,9,231708E-06,5,1705,-0,8580453,5,1705,0,1168231,5,1705,-0,3101854,0,3977308,9,399557E-06,5,1705,-0,9547265,5,1705,0,2699016,5,1705,-0,1893339
0,39825,8,560311E-06,5,17725,-0,8620737,5,17725,0,1168231,5,17725,-0,3142138,0,39825,1,007095E-05,5,17725,-0,9547265,5,17725,0,27393,5,17725,-0,1893339
0,3987692,6,881819E-06,5,184,-0,8540169,5,184,0,1208515,5,184,-0,3142138,0,3987692,9,231708E-06,5,184,-0,9587549,5,184,0,2658732,5,184,-0,1772488
0,3992885,6,378271E-06,5,19075,-0,8499885,5,19075,0,1248798,5,19075,-0,3142138,0,3992885,1,05745E-05,5,19075,-0,9506981,5,19075,0,2578164,5,19075,-0,1893339
0,3998077,7,049668E-06,5,1975,-0,8459601,5,1975,0,1127947,5,1975,-0,3142138,0,3998077,1,225299E-05,5,1975,-0,9506981,5,1975,0,2578164,5,1975,-0,1853056
0,4003269,7,553216E-06,5,20425,-0,8459601,5,20425,0,1087663,5,20425,-0,3142138,0,4003269,1,05745E-05,5,20425,-0,9587549,5,20425,0,2618448,5,20425,-0,1933623
0,4008462,7,553216E-06,5,211,-0,8499885,5,211,0,09668116,5,211,-0,306157,0,4008462,8,224613E-06,5,211,-0,9547265,5,211,0,2578164,5,211,-0,1973907
0,4013654,8,392462E-06,5,21775,-0,8499885,5,21775,0,1007095,5,21775,-0,3101854,0,4013654,7,049668E-06,5,21775,-0,9547265,5,21775,0,2578164,5,21775,-0,2014191
0,4018846,9,735257E-06,5,2245,-0,8499885,5,2245,0,1007095,5,2245,-0,3142138,0,4018846,6,881819E-06,5,2245,-0,9587549,5,2245,0,2578164,5,2245,-0,2014191
0,4024039,1,05745E-05,5,23125,-0,8580453,5,23125,0,09265278,5,23125,-0,306157,0,4024039,8,560311E-06,5,23125,-0,9547265,5,23125,0,2578164,5,23125,-0,1973907
0,4029231,1,107805E-05,5,238,-0,8580453,5,238,0,09668116,5,238,-0,3021286,0,4029231,1,02388E-05,5,238,-0,9587549,5,238,0,2578164,5,238,-0,2014191
0,4034423,1,275654E-05,5,24475,-0,8580453,5,24475,0,1007095,5,24475,-0,3021286,0,4034423,1,05745E-05,5,24475,-0,9587549,5,24475,0,2578164,5,24475,-0,1893339
0,4039615,1,460288E-05,5,2515,-0,866102,5,2515,0,1087663,5,2515,-0,2981002,0,4039615,9,231708E-06,5,2515,-0,9627832,5,2515,0,2618448,5,2515,-0,1853056
0,4044808,1,594568E-05,5,25825,-0,8620737,5,25825,0,1087663,5,25825,-0,2981002,0,4044808,9,567407E-06,5,25825,-0,9587549,5,25825,0,2699016,5,25825,-0,1812772
0,405,1,510643E-05,5,265,-0,8580453,5,265,0,1047379,5,265,-0,2981002,0,405,1,174945E-05,5,265,-0,9547265,5,265,0,2699016,5,265,-0,1853056
0,4055192,1,19173E-05,5,27175,-0,8580453,5,27175,0,1047379,5,27175,-0,2940719,0,4055192,1,326009E-05,5,27175,-0,9506981,5,27175,0,27393,5,27175,-0,1732204
0,4060385,1,12459E-05,5,2785,-0,8540169,5,2785,0,1047379,5,2785,-0,2981002,0,4060385,1,225299E-05,5,2785,-0,9547265,5,2785,0,2699016,5,2785,-0,1812772
0,4065577,1,326009E-05,5,28525,-0,8540169,5,28525,0,1007095,5,28525,-0,2940719,0,4065577,1,12459E-05,5,28525,-0,9466697,5,28525,0,2658732,5,28525,-0,1772488
0,4070769,1,628138E-05,5,292,-0,8499885,5,292,0,1047379,5,292,-0,3021286,0,4070769,1,09102E-05,5,292,-0,9466697,5,292,0,2658732,5,292,-0,1812772
0,4075962,1,628138E-05,5,29875,-0,8540169,5,29875,0,1047379,5,29875,-0,2981002,0,4075962,1,12459E-05,5,29875,-0,9426414,5,29875,0,2618448,5,29875,-0,1853056
0,4081154,1,376364E-05,5,3055,-0,8499885,5,3055,0,1007095,5,3055,-0,306157,0,4081154,1,12459E-05,5,3055,-0,9466697,5,3055,0,2578164,5,3055,-0,1933623
0,4086346,1,225299E-05,5,31225,-0,8459601,5,31225,0,1007095,5,31225,-0,3101854,0,4086346,1,258869E-05,5,31225,-0,9506981,5,31225,0,2618448,5,31225,-0,1893339
0,4091538,1,107805E-05,5,319,-0,8540169,5,319,0,1047379,5,319,-0,3182422,0,4091538,1,393149E-05,5,319,-0,9466697,5,319,0,2618448,5,319,-0,1893339
